Devices
1000
,,DelSys EMG - Voltage,,,Delsys ACC - Acceleration,,
Frame,Sub Frame,Right TA,Right GL,Right GM,1,2
,,V,V,V,mm/s²,mm/s²
1,,,,,,
2,,,,,,
3,,,,,,
4,,,,,,
5,,,,,,
6,,,,,,
7,,,,,,
8,,,,,,
9,,,,,,
10,,,,,,
11,,,,,,
12,,,,,,
13,,,,,,
14,0,-0.0149821,0.0353017,-0.0195789,,
14,1,0.000810776,0.0307241,-0.0152683,,
14,2,-0.0184916,0.03328,-0.0193119,,
14,3,-0.0334071,0.0404516,-0.0200748,,
14,4,-0.0462244,0.041329,-0.0282764,,
15,0,-0.0593089,0.0386205,-0.0198841,,
15,1,-0.0633524,0.0329366,-0.016489,,
15,2,-0.0524043,0.0325933,-0.0177479,,
15,3,-0.051832,0.0347295,-0.0169849,,
15,4,-0.0306605,0.0429693,-0.0251865,,
16,0,-0.00433907,0.0382772,-0.0205326,,
16,1,0.0030233,0.0335851,-0.0178242,,
16,2,0.0150014,0.0311437,-0.016222,,
16,3,0.0151159,0.0360265,-0.0165272,,
16,4,0.00573174,0.0365224,-0.0218678,,
17,0,-0.0144862,0.0394598,-0.0212955,,
17,1,-0.00720009,0.0349966,-0.0183582,,
17,2,0.0203802,0.0323263,-0.0109196,,
17,3,0.0100042,0.0346914,-0.0165272,,
17,4,0.00874535,0.0356451,-0.0235844,,
18,0,0.00828758,0.0388876,-0.0228214,,
18,1,0.0211813,0.0357977,-0.0171375,,
18,2,0.0162603,0.0307241,-0.0139713,,
18,3,0.031748,0.0313726,-0.0138569,,
18,4,0.035639,0.0352255,-0.0249958,,
19,0,0.019045,0.0389639,-0.022974,,
19,1,0.0231649,0.0340047,-0.0212574,,
19,2,0.0184347,0.0321355,-0.0196171,,
19,3,0.015917,0.0262609,-0.0116825,,
19,4,0.00275627,0.034577,-0.0196171,,
20,0,-0.00334724,0.0373617,-0.0231266,,
20,1,-0.00475868,0.0344244,-0.018816,,
20,2,-0.0154398,0.0335088,-0.0191593,,
20,3,-0.00128731,0.0229803,-0.0133991,,
20,4,0.00470177,0.0342718,-0.0209522,,
21,0,-0.00613197,0.0370947,-0.0251865,,
21,1,-0.00365242,0.0347677,-0.0254154,,
21,2,0.0147344,0.0331274,-0.0196934,,
21,3,0.00298515,0.0288168,-0.0154209,,
21,4,-0.006399,0.0327078,-0.0182438,,
22,0,-0.00178322,0.0339285,-0.0220203,,
22,1,0.00321404,0.0368276,-0.0301075,,
22,2,-0.0033091,0.0356451,-0.0197315,,
22,3,-0.0114725,0.0324026,-0.016222,,
22,4,-0.000715103,0.0319448,-0.0197315,,
23,0,-0.0152872,0.0357977,-0.0203419,,
23,1,-0.0290202,0.0412527,-0.0298786,,
23,2,-0.0057505,0.0381246,-0.0193119,,
23,3,0.000963364,0.0320211,-0.0173664,,
23,4,0.0148107,0.0301519,-0.0190449,,
24,0,0.019045,0.0349203,-0.0196552,108.524,22947.3
24,1,0.0179006,0.0422063,-0.0242329,108.524,23061
24,2,0.010462,0.0378957,-0.0213337,-351.768,23141.9
24,3,0.0231649,0.0346151,-0.0186634,-179.626,23162.8
24,4,0.0340749,0.03122,-0.0123692,74.8444,23222.7
25,0,0.0293829,0.0339666,-0.0166416,666.115,23135.9
25,1,0.0129415,0.0372472,-0.0214481,273.182,23336.5
25,2,0.0150396,0.0394979,-0.0229359,-142.204,23426.3
25,3,0.0280859,0.0347295,-0.0183582,-471.519,23450.2
25,4,0.0295354,0.0311819,-0.0137806,97.2977,23537.1
26,0,0.0381948,0.0327459,-0.0147343,692.31,23534.1
26,1,0.0293066,0.0338522,-0.019846,666.115,23671.8
26,2,-0.00731453,0.0380865,-0.0234699,-149.689,23758.6
26,3,-0.00243172,0.0348058,-0.0177479,-362.995,23800.5
26,4,-0.00269875,0.0348821,-0.0182819,-89.8132,23842.4
27,0,-0.0220774,0.025498,-0.0134754,175.884,23869.4
27,1,-0.0208567,0.0336996,-0.0184727,415.386,23908.3
27,2,-0.0268458,0.0373617,-0.0241566,-97.2977,23962.2
27,3,-0.00857338,0.0349203,-0.0202274,-639.919,24043
27,4,0.00546471,0.0329366,-0.0201893,-11.2267,24055
28,0,0.00252739,0.0246969,-0.0143909,-52.3911,23998.1
28,1,0.0180914,0.0330511,-0.018549,583.786,23980.1
28,2,-0.00739082,0.0331655,-0.0220966,18.7111,23995.1
28,3,-0.0282954,0.0342718,-0.0245762,-426.613,24102.9
28,4,-0.0152491,0.035111,-0.0193882,-475.262,23986.1
29,0,0.000543747,0.0311056,-0.0143528,37.4222,23932.2
29,1,0.000581894,0.0324789,-0.0203037,475.262,23824.5
29,2,0.00905052,0.0345388,-0.0221348,-26.1955,23824.5
29,3,-0.00224098,0.039269,-0.0312138,-434.097,23800.5
29,4,-0.0150202,0.033547,-0.0194263,-928.07,23761.6
30,0,-0.00521645,0.0324407,-0.015192,-183.369,23632.9
30,1,0.00447289,0.0317541,-0.0196552,449.066,23531.1
30,2,-0.0102518,0.0350729,-0.020647,-52.3911,23504.1
30,3,-0.0400828,0.0409475,-0.0220585,-160.915,23471.2
30,4,-0.0288676,0.0386205,-0.0200748,-1526.82,23471.2
31,0,-0.0237177,0.0333944,-0.0196934,-172.142,23375.4
31,1,-0.0334071,0.0322881,-0.0170994,149.689,23303.5
31,2,-0.0324915,0.035111,-0.0176334,-82.3288,23303.5
31,3,-0.0391291,0.0367895,-0.0203037,-168.4,23303.5
31,4,-0.0498866,0.0380102,-0.0223637,-568.817,23348.4
32,0,-0.0294398,0.0345007,-0.0185871,-310.604,23309.5
32,1,-0.0132273,0.0314489,-0.0101566,527.653,23303.5
32,2,-0.0234126,0.0346151,-0.0166416,291.893,23288.6
32,3,-0.0200938,0.0380483,-0.019846,52.3911,23357.4
32,4,-0.036497,0.0392309,-0.0215244,-430.355,23468.2
33,0,-0.00952705,0.0329366,-0.0184727,-419.128,23471.2
33,1,0.00149742,0.0316778,-0.0157642,-41.1644,23489.2
33,2,0.00569359,0.0294653,-0.0145435,789.608,23375.4
33,3,0.0126745,0.034081,-0.0185108,265.697,23555
33,4,-0.0130366,0.0377432,-0.0197697,-355.511,23623.9
34,0,-0.00311836,0.0354543,-0.0183201,-426.613,23617.9
34,1,0.0169088,0.0330129,-0.0185871,-14.9689,23611.9
34,2,0.00782982,0.0239721,-0.0140858,471.519,23579
34,3,0.00630394,0.0339285,-0.0180912,486.488,23635.8
34,4,0.0173284,0.0368658,-0.0221729,-89.8132,23677.8
35,0,0.0120641,0.0343099,-0.0227833,-434.097,23698.7
35,1,0.00565544,0.033814,-0.0196552,-112.267,23686.7
35,2,0.0175954,0.0255743,-0.0150013,56.1333,23629.9
35,3,0.00817314,0.0331655,-0.0190449,419.128,23626.9
35,4,0.0220205,0.0365224,-0.0221348,-33.68,23668.8
36,0,0.00382439,0.0370565,-0.0270939,-254.471,23779.6
36,1,0.00809685,0.0343099,-0.0195026,-314.346,23683.8
36,2,0.00466362,0.0299612,-0.0162601,-29.9377,23632.9
36,3,-0.00399574,0.0335851,-0.0191975,565.075,23590.9
36,4,-0.00475868,0.036408,-0.020647,29.9377,23617.9
37,0,-0.0127314,0.0383916,-0.0316715,-385.448,23623.9
37,1,-0.0221537,0.0362554,-0.0199223,-1074.02,23644.8
37,2,-0.00605568,0.0311819,-0.0163364,-116.009,23555
37,3,0.0114919,0.0324407,-0.0196552,336.8,23555
37,4,-0.000257339,0.0349203,-0.0197697,-116.009,23546
38,0,0.00309959,0.042626,-0.0263691,-149.689,23498.1
38,1,0.00782982,0.0378957,-0.0199604,-1392.11,23585
38,2,0.00996605,0.0335088,-0.0174427,-97.2977,23519.1
38,3,0.00508324,0.0318685,-0.017519,246.986,23456.2
38,4,0.00267998,0.0364462,-0.0180912,-142.204,23456.2
39,0,0.012293,0.0390783,-0.0208378,41.1644,23474.2
39,1,-0.000791397,0.0388494,-0.0212574,-583.786,23540
39,2,0.00451103,0.0343099,-0.0189686,-306.862,23474.2
39,3,0.0145437,0.0322881,-0.0119114,190.853,23444.2
39,4,0.0179388,0.0345007,-0.0148487,467.777,23357.4
40,0,0.0191213,0.0361028,-0.0215244,205.822,23477.2
40,1,0.0280477,0.0404134,-0.0220585,-280.666,23534.1
40,2,0.0340749,0.0354925,-0.0191975,-430.355,23489.2
40,3,0.016184,0.0321355,-0.0113392,33.68,23483.2
40,4,0.0133611,0.0330129,-0.0145054,931.812,23453.2
41,0,0.0201131,0.0346914,-0.0196934,381.706,23471.2
41,1,0.0222875,0.0399175,-0.0219059,-82.3288,23483.2
41,2,0.0207998,0.0346151,-0.0185108,-321.831,23483.2
41,3,0.0288488,0.0322118,-0.0166035,-14.9689,23480.2
41,4,0.0183584,0.028092,-0.0137806,108.524,23435.3
42,0,0.00275627,0.0365987,-0.0191212,482.746,23426.3
42,1,-0.0108622,0.037972,-0.0227451,-29.9377,23465.2
42,2,-0.000867691,0.0342718,-0.0231647,-523.911,23501.1
42,3,-0.00391945,0.0335088,-0.0183201,18.7111,23465.2
42,4,-0.000295486,0.0233999,-0.0125599,7.48444,23414.3
43,0,0.00542656,0.034577,-0.0178242,441.582,23408.3
43,1,-0.0197504,0.0370184,-0.0225163,-71.1021,23438.3
43,2,-0.0201319,0.0312582,-0.0216007,-479.004,23531.1
43,3,-0.0210093,0.0332037,-0.0194263,-819.546,23507.1
43,4,-0.00285133,0.0273672,-0.0154591,-153.431,23450.2
44,0,-0.0165842,0.0340047,-0.0188541,546.364,23438.3
44,1,-0.0203608,0.0357977,-0.0222111,-134.72,23471.2
44,2,0.000391159,0.034844,-0.0285053,-295.635,23501.1
44,3,-0.0113963,0.0342336,-0.0195789,-1354.68,23582
44,4,-0.00800117,0.0300375,-0.0162601,-134.72,23522.1
45,0,-0.000409927,0.0369421,-0.0185108,348.026,23495.1
45,1,-0.00693306,0.0354925,-0.020113,-149.689,23531.1
45,2,-0.00872597,0.0399938,-0.0301075,-134.72,23564
45,3,-0.00327095,0.0372854,-0.0203419,-972.977,23647.8
45,4,-0.018606,0.0327078,-0.017519,-299.377,23596.9
46,0,-0.0208567,0.0312963,-0.02038,246.986,23585
46,1,-0.0166224,0.0354543,-0.0194645,-48.6488,23593.9
46,2,-0.0188349,0.0422826,-0.0236607,-44.9066,23635.8
46,3,-0.00655159,0.0379339,-0.0216007,-523.911,23701.7
46,4,-0.0260447,0.0339666,-0.0179768,-318.089,23668.8
47,0,-0.0155161,0.0315252,-0.0137806,123.493,23653.8
47,1,-0.0213145,0.0349584,-0.0178623,812.061,23564
47,2,-0.0276469,0.0368276,-0.0215626,280.666,23674.8
47,3,-0.0216578,0.0382772,-0.0209522,-310.604,23725.7
47,4,9.68948e-06,0.0349203,-0.0185108,-288.151,23668.8
48,0,-0.00174507,0.03122,-0.0093174,-37.4222,23656.8
48,1,0.00393883,0.0345007,-0.0155735,759.67,23534.1
48,2,0.0167181,0.0349584,-0.0212193,321.831,23647.8
48,3,-0.000219192,0.0388876,-0.0220203,-160.915,23647.8
48,4,0.00847832,0.0343099,-0.0196171,-452.808,23596.9
49,0,0.0146581,0.0327078,-0.0165272,3.74222,23587.9
49,1,0.0309087,0.0294271,-0.0132847,190.853,23519.1
49,2,0.0309469,0.0343862,-0.0191975,389.191,23516.1
49,3,0.0331976,0.0383916,-0.0227451,-78.5866,23555
49,4,0.03644,0.0341573,-0.0191975,-460.293,23561
50,0,0.0043203,0.0323263,-0.0191593,-93.5555,23528.1
50,1,-0.00197395,0.0241247,-0.0135899,127.235,23486.2
50,2,-0.00250801,0.033547,-0.0188923,823.288,23492.1
50,3,-0.0183772,0.0369802,-0.02244,-11.2267,23528.1
50,4,-0.0126933,0.0344244,-0.0230885,-362.995,23635.8
51,0,0.00500694,0.0343481,-0.0187016,-243.244,23558
51,1,0.00828758,0.0272146,-0.0150394,-130.978,23531.1
51,2,-0.0013636,0.0335851,-0.0190067,452.808,23501.1
51,3,0.0018026,0.0351492,-0.0214481,381.706,23561
51,4,0.0139715,0.0349584,-0.0309086,-351.768,23608.9
52,0,0.021639,0.0354543,-0.0176716,-782.124,23593.9
52,1,0.0145818,0.0318685,-0.0147724,-11.2267,23543
52,2,0.0246145,0.0328985,-0.0196934,336.8,23489.2
52,3,0.0105383,0.0361791,-0.0204945,3.74222,23498.1
52,4,-0.0155924,0.0407186,-0.0326252,-355.511,23504.1
53,0,-0.00788673,0.0375143,-0.0199223,-1291.07,23534.1
53,1,0.00638023,0.0322881,-0.0175571,-78.5866,23486.2
53,2,0.00779167,0.0315252,-0.018549,246.986,23411.3
53,3,0.00531212,0.0353017,-0.0183964,-33.68,23447.2
53,4,0.0101949,0.0414434,-0.0235844,-202.08,23441.3
54,0,-0.00838264,0.0377813,-0.0201511,-901.875,23489.2
54,1,-0.0057505,0.0334707,-0.0183964,-160.915,23429.3
54,2,0.0049688,0.0315633,-0.0148869,239.502,23375.4
54,3,-0.00689491,0.0356069,-0.0168705,183.369,23378.4
54,4,-0.0120829,0.034577,-0.0222874,56.1333,23387.4
55,0,-0.0256632,0.0397268,-0.0218296,-351.768,23438.3
55,1,0.00672356,0.0363317,-0.0187778,-164.658,23405.3
55,2,0.00275627,0.0308004,-0.011301,18.7111,23366.4
55,3,-0.00536903,0.0349966,-0.0148106,718.506,23240.7
55,4,0.00607506,0.035111,-0.0196171,250.729,23405.3
56,0,-0.00727638,0.0382772,-0.0226307,-273.182,23417.3
56,1,-0.0117014,0.0311437,-0.0182056,-370.48,23366.4
56,2,-0.00658974,0.0316778,-0.0147343,112.267,23363.4
56,3,-0.00819191,0.0294653,-0.0152683,624.95,23276.6
56,4,-0.00418648,0.0345007,-0.0194645,437.84,23327.5
57,0,-0.0106715,0.0389257,-0.021944,-130.978,23357.4
57,1,-0.00990852,0.0341955,-0.019846,-520.168,23327.5
57,2,0.0163366,0.0333944,-0.0198841,71.1021,23306.5
57,3,0.0236227,0.024468,-0.0144291,-97.2977,23261.6
57,4,0.0372411,0.0345007,-0.0166416,452.808,23237.7
58,0,0.0295736,0.0360647,-0.0230503,-101.04,23264.6
58,1,0.0299932,0.0346914,-0.0215244,-348.026,23315.5
58,2,0.0356008,0.0365224,-0.0193882,-119.751,23261.6
58,3,0.0393011,0.0256124,-0.0140095,-59.8755,23189.8
58,4,0.0129415,0.033547,-0.0195026,493.973,23171.8
59,0,-0.00430092,0.0357214,-0.022974,41.1644,23264.6
59,1,-0.0184534,0.0349203,-0.0279713,-396.675,23270.6
59,2,-0.0403117,0.0345007,-0.0194263,-928.07,23231.7
59,3,-0.0290965,0.0307241,-0.0145054,-71.1021,23147.9
59,4,-0.0317286,0.0327078,-0.0194645,464.035,23150.9
60,0,-0.0358866,0.0360647,-0.0209141,-145.947,23171.8
60,1,-0.0360011,0.0391927,-0.0311756,-273.182,23183.8
60,2,-0.0326441,0.0362554,-0.02038,-1309.78,23225.7
60,3,-0.00163063,0.0329748,-0.0192738,86.071,23123.9
60,4,0.00351921,0.0315633,-0.0201893,280.666,23103
61,0,-0.0225352,0.0359121,-0.0186634,-11.2267,23132.9
61,1,-0.020666,0.0409856,-0.0248051,-179.626,23129.9
61,2,-0.015478,0.039002,-0.019846,-834.515,23153.9
61,3,-0.0233744,0.0328985,-0.0178242,-142.204,23100
61,4,-0.0125025,0.0317922,-0.0142384,134.72,23043.1
62,0,-0.0187968,0.0347677,-0.0167561,258.213,22995.2
62,1,-0.0292872,0.0338903,-0.0221729,172.142,23019.1
62,2,-0.0265406,0.0397649,-0.02038,-396.675,23076
62,3,-0.0103663,0.0337759,-0.0180531,-348.026,23019.1
62,4,-0.00903114,0.0314489,-0.0108051,-22.4533,22992.2
63,0,-0.0239085,0.0337377,-0.0145817,755.928,22848.5
63,1,-0.011854,0.0348058,-0.0204945,329.315,23007.2
63,2,-0.012617,0.0391546,-0.0220585,-228.275,23031.1
63,3,0.005541,0.034577,-0.0187778,-336.8,23010.2
63,4,0.0295736,0.0317541,-0.0192738,7.48444,22983.2
64,0,0.0277807,0.0269476,-0.0149632,722.248,22935.3
64,1,0.013056,0.0344625,-0.0185871,415.386,23049.1
64,2,0.010996,0.0382391,-0.0233936,-157.173,23114.9
64,3,0.027857,0.0350729,-0.0188923,-385.448,23135.9
64,4,0.0225927,0.033547,-0.0196934,97.2977,23183.8
65,0,0.0325491,0.0239721,-0.0141621,37.4222,23174.8
65,1,0.0322439,0.0329748,-0.0182438,591.27,23219.7
65,2,0.0266363,0.0373998,-0.0227833,-235.76,23297.6
65,3,0.0186636,0.0336233,-0.0240803,-475.262,23393.4
65,4,0.0202657,0.0344625,-0.0194645,-261.955,23402.3
66,0,0.0312139,0.0304571,-0.0143147,-145.947,23378.4
66,1,0.0135137,0.0333944,-0.0184727,475.262,23402.3
66,2,0.000238571,0.0362936,-0.0209522,-3.74222,23477.2
66,3,-0.00231728,0.0372854,-0.0306034,-490.231,23587.9
66,4,-0.0202082,0.0357977,-0.0214481,-699.795,23552
67,0,-0.0264643,0.0338522,-0.017786,-44.9066,23495.1
67,1,-0.0111292,0.0320593,-0.0195026,217.049,23486.2
67,2,-0.0213526,0.0355306,-0.0196934,-82.3288,23531.1
67,3,-0.0417612,0.0404134,-0.0308323,-344.284,23540
67,4,-0.0234507,0.0380865,-0.0193501,-1317.26,23567
68,0,-0.00273689,0.0328222,-0.017519,-67.3599,23528.1
68,1,0.00378624,0.0299612,-0.0196171,265.697,23474.2
68,2,-0.00578865,0.0353017,-0.0188541,-78.5866,23501.1
68,3,-0.0033091,0.0403753,-0.0248432,-714.764,23471.2
68,4,-0.00037178,0.0383535,-0.0226307,-1062.79,23537.1
69,0,-0.0150584,0.0331655,-0.0170612,-250.729,23477.2
69,1,-0.0119685,0.0309148,-0.0147724,164.658,23429.3
69,2,-0.012121,0.0358739,-0.0164509,-33.68,23402.3
69,3,-0.0229166,0.0355688,-0.0217915,0,23429.3
69,4,-0.0143717,0.0385061,-0.0221729,-445.324,23477.2
70,0,0.0162603,0.0350729,-0.0167179,-228.275,23414.3
70,1,0.00439659,0.0304952,-0.0116444,190.853,23381.4
70,2,-0.0113581,0.0343099,-0.0152302,497.715,23261.6
70,3,-0.00624641,0.0347295,-0.0207996,145.947,23348.4
70,4,-0.0129984,0.039002,-0.0228596,-265.697,23405.3
71,0,-0.0194834,0.0356069,-0.0182819,-415.386,23360.4
71,1,-0.018606,0.0318685,-0.0129795,0,23342.5
71,2,-0.0188349,0.0316015,-0.0153065,744.701,23303.5
71,3,-0.0361918,0.0342336,-0.019846,449.066,23357.4
71,4,-0.0294016,0.0384298,-0.0226688,-542.622,23390.4
72,0,-0.0158976,0.034844,-0.0193501,-419.128,23426.3
72,1,-0.00449165,0.0328222,-0.0184345,-18.7111,23459.2
72,2,-0.0014399,0.0251928,-0.0143528,22.4533,23468.2
72,3,0.0137045,0.0339666,-0.0196934,497.715,23483.2
72,4,0.0121023,0.0383535,-0.0217152,-22.4533,23602.9
73,0,0.016451,0.0347677,-0.0203037,-437.84,23767.6
73,1,0.0217916,0.033814,-0.0197315,-340.542,23761.6
73,2,0.0248052,0.0224081,-0.0154209,-127.235,23764.6
73,3,0.0339223,0.0340047,-0.0184727,389.191,23812.5
73,4,0.0149633,0.0370565,-0.0220585,44.9066,23899.3
74,0,0.00691429,0.0334707,-0.0256062,-295.635,24004.1
74,1,0.0129034,0.0332418,-0.0176334,-886.906,24031
74,2,-0.00426277,0.0288931,-0.0148869,-205.822,23971.2
74,3,-0.00346169,0.0317541,-0.0202274,344.284,23974.1
74,4,0.0147344,0.0363317,-0.02141,-14.9689,24031
75,0,0.00519768,0.0409475,-0.0301838,-329.315,24055
75,1,-0.00533089,0.0355688,-0.0228596,-1141.38,24072.9
75,2,-0.00075325,0.032517,-0.0160313,-101.04,24019.1
75,3,-0.0116251,0.031983,-0.0210285,291.893,23947.2
75,4,-0.007696,0.0345007,-0.0190449,-104.782,23926.2
76,0,-0.000104751,0.0419775,-0.0264835,-56.1333,23932.2
76,1,0.0153829,0.0375524,-0.0202274,-707.279,23965.2
76,2,0.00550285,0.0333181,-0.0173664,-299.377,23908.3
76,3,0.0192739,0.0297323,-0.0185108,97.2977,23869.4
76,4,0.0220586,0.0354925,-0.0183201,299.377,23806.5
77,0,0.00679985,0.0383535,-0.0215626,52.3911,23884.3
77,1,0.00363365,0.0382009,-0.0188923,-411.644,23959.2
77,2,0.00596062,0.0354162,-0.0182056,-415.386,23932.2
77,3,0.0111868,0.0308767,-0.011797,-63.6177,23896.3
77,4,0.00645653,0.0349584,-0.0158024,830.772,23791.5
78,0,0.00515953,0.0346914,-0.0217152,175.884,23971.2
78,1,-0.0142954,0.0401464,-0.0221729,-512.684,23998.1
78,2,-0.0224207,0.0356069,-0.0182819,-265.697,23986.1
78,3,-0.0200938,0.0314108,-0.0113392,-3.74222,23992.1
78,4,-0.0291727,0.0326696,-0.0100803,681.084,23920.3
79,0,-0.0351237,0.034081,-0.0200748,407.902,23968.2
79,1,-0.0589274,0.0385824,-0.0221729,-235.76,23989.1
79,2,-0.0396632,0.0349584,-0.0168324,-415.386,23980.1
79,3,-0.026121,0.0319448,-0.017252,67.3599,23968.2
79,4,-0.0467966,0.028626,-0.0151157,3.74222,23893.3
80,0,-0.0296687,0.0349966,-0.0181293,729.733,23878.3
80,1,-0.00514015,0.0376669,-0.0230503,-22.4533,23860.4
80,2,0.00966087,0.0349203,-0.0190067,-452.808,23941.2
80,3,0.0325872,0.0324026,-0.0197315,-48.6488,23821.5
80,4,0.0592901,0.0248113,-0.0133991,3.74222,23737.6
81,0,0.0328161,0.0328985,-0.0190067,516.426,23680.8
81,1,0.0188161,0.0383916,-0.0227833,-14.9689,23677.8
81,2,0.000353012,0.03328,-0.021944,-512.684,23737.6
81,3,0.00119225,0.0328603,-0.0193119,-456.551,23641.8
81,4,0.00546471,0.0258794,-0.015192,-190.853,23549
82,0,-0.00533089,0.0343481,-0.0140095,419.128,23480.2
82,1,-0.00262245,0.0372091,-0.021677,18.7111,23489.2
82,2,-0.00971779,0.0360265,-0.0299931,-366.737,23477.2
82,3,0.00416771,0.0357977,-0.0201511,-1182.54,23495.1
82,4,0.0195028,0.032517,-0.0150776,-89.8132,23423.3
83,0,0.00782982,0.0334707,-0.0184727,-254.471,23348.4
83,1,-0.00353798,0.0352255,-0.0233173,-67.3599,23375.4
83,2,0.00542656,0.0406423,-0.0307178,-179.626,23378.4
83,3,0.00519768,0.0366369,-0.0196171,-1227.45,23408.3
83,4,-0.00929817,0.0327459,-0.0163364,-202.08,23357.4
84,0,-0.0141428,0.031983,-0.0199986,89.8132,23315.5
84,1,-0.013418,0.0348821,-0.0190449,-104.782,23315.5
84,2,-0.0110148,0.0415578,-0.0241947,-119.751,23315.5
84,3,-0.0129603,0.0369802,-0.0206089,-557.59,23363.4
84,4,0.0132848,0.0321355,-0.0172901,-250.729,23279.6
85,0,0.0215627,0.0307241,-0.0147724,104.782,23234.7
85,1,0.00653282,0.0362936,-0.0129414,411.644,23138.9
85,2,0.00386253,0.0363317,-0.0224018,205.822,23183.8
85,3,0.00229851,0.0391927,-0.0215626,-333.057,23201.8
85,4,0.00214592,0.034844,-0.0177479,-351.768,23138.9
86,0,0.0138189,0.0317541,-0.0110722,-3.74222,23088
86,1,0.0259878,0.0346151,-0.0167561,830.772,22932.3
86,2,0.0172903,0.0349966,-0.02038,329.315,23031.1
86,3,0.00428215,0.039002,-0.0228596,-130.978,23064
86,4,0.00855461,0.0347295,-0.0182819,-950.523,22998.2
87,0,0.0169851,0.0308004,-0.0143147,18.7111,23007.2
87,1,0.00687614,0.03122,-0.0147343,299.377,22974.2
87,2,-0.00109657,0.0342336,-0.0192738,516.426,22974.2
87,3,-0.00643715,0.0404134,-0.0231266,0,23025.1
87,4,-0.0173853,0.0359502,-0.0173664,-804.577,23052.1
88,0,-2.84575e-05,0.0332037,-0.0183582,-37.4222,23055.1
88,1,0.0222494,0.0253454,-0.0140095,48.6488,23010.2
88,2,0.015154,0.0345007,-0.018816,643.661,23046.1
88,3,-0.00281319,0.0380483,-0.0223255,-7.48444,23070
88,4,0.0104238,0.0339666,-0.0207233,-280.666,23195.8
89,0,0.0175573,0.0332418,-0.0196552,-381.706,23138.9
89,1,0.0179388,0.0256887,-0.0137806,-3.74222,23055.1
89,2,0.0242712,0.0330511,-0.0180531,538.879,23031.1
89,3,0.018778,0.0367513,-0.0228214,29.9377,23064
89,4,0.0133611,0.0354543,-0.0263309,-396.675,23094
90,0,0.00439659,0.0351492,-0.019083,-1160.09,23058.1
90,1,0.014887,0.0302663,-0.0152683,-41.1644,23001.2
90,2,0.00603691,0.033547,-0.0197315,325.573,22974.2
90,3,-0.0118922,0.0364843,-0.019846,-59.8755,22959.3
90,4,-0.00460609,0.0367513,-0.0324345,-415.386,22932.3
91,0,0.00309959,0.0376287,-0.0193501,-1422.04,22983.2
91,1,-0.00628456,0.0331655,-0.0155354,-168.4,22899.4
91,2,0.00538841,0.0321737,-0.0199986,291.893,22851.5
91,3,0.0108053,0.0361791,-0.0208759,-59.8755,22869.4
91,4,-0.00227913,0.0414816,-0.027132,-217.049,22884.4
92,0,0.00779167,0.0375524,-0.0207615,-849.484,22950.3
92,1,0.0251867,0.0336996,-0.0173664,-258.213,22911.4
92,2,0.0284673,0.0324407,-0.0181675,33.68,22878.4
92,3,0.00458733,0.0353399,-0.0191593,183.369,22881.4
92,4,0.00721947,0.041329,-0.0232029,-86.071,22935.3
93,0,0.0219442,0.0383154,-0.0206852,-370.48,23016.1
93,1,0.0119878,0.0333562,-0.0184345,-138.462,22998.2
93,2,0.00447289,0.0321355,-0.0136662,333.057,22992.2
93,3,0.00191704,0.0359884,-0.0169849,666.115,22911.4
93,4,-0.0163172,0.0363699,-0.0210667,-71.1021,23082
94,0,-0.0332926,0.037972,-0.0217533,-284.409,23168.8
94,1,-0.0252436,0.0345388,-0.0180912,-419.128,23192.8
94,2,-0.0263117,0.0318685,-0.0100422,82.3288,23240.7
94,3,-0.041189,0.0342718,-0.017252,767.155,23201.8
94,4,-0.0324152,0.032517,-0.0211048,441.582,23333.5
95,0,-0.0298594,0.0397649,-0.0220966,-149.689,23429.3
95,1,-0.0179194,0.035111,-0.0183201,-460.293,23486.2
95,2,-0.0236414,0.0304189,-0.0114155,-56.1333,23540
95,3,-0.0163172,0.0337377,-0.0158024,-11.2267,23528.1
95,4,-0.0110911,0.034844,-0.020647,127.235,23596.9
96,0,-0.0237177,0.0384679,-0.0227833,-138.462,23647.8
96,1,0.00103966,0.035378,-0.0191212,-422.871,23755.6
96,2,0.00702873,0.03122,-0.0155354,-400.417,23731.7
96,3,-0.0101374,0.0320593,-0.0140095,-71.1021,23695.7
96,4,-0.00903114,0.033814,-0.0199604,359.253,23635.8
97,0,-0.0155924,0.038735,-0.0223255,-22.4533,23716.7
97,1,-0.0273798,0.0367132,-0.0183201,-437.84,23821.5
97,2,-0.0231074,0.0321737,-0.0180149,-531.395,23746.6
97,3,-0.0322626,0.0253072,-0.0142002,-157.173,23680.8
97,4,-0.0237559,0.0345007,-0.0187016,449.066,23653.8
98,0,-0.0058268,0.0385824,-0.0222492,-172.142,23698.7
98,1,-0.00674232,0.0349966,-0.0195026,-407.902,23695.7
98,2,0.00294701,0.0331655,-0.0189686,-1309.78,23776.6
98,3,-0.000638809,0.0236288,-0.0143528,-179.626,23761.6
98,4,-0.00521645,0.0331655,-0.0182819,314.346,23737.6
99,0,0.00699059,0.0377813,-0.0220585,-194.595,23794.5
99,1,0.00454918,0.0338522,-0.0241184,-198.338,23851.4
99,2,-0.00514015,0.0337377,-0.0196171,-1238.67,23983.1
99,3,0.0148489,0.0290075,-0.0184727,-157.173,24001.1
99,4,0.00950829,0.0330892,-0.0196171,56.1333,24019.1
100,0,0.0024511,0.0364462,-0.0206852,-3.74222,24058
100,1,0.0211813,0.0355306,-0.0243473,-56.1333,24189.7
100,2,0.032015,0.0351873,-0.0192738,-595.013,24294.5
100,3,0.0322439,0.0309911,-0.0160694,-243.244,24309.4
100,4,0.00950829,0.0328222,-0.0184727,93.5555,24324.4
101,0,0.00905052,0.035378,-0.0204945,452.808,24288.5
101,1,0.00508324,0.0398794,-0.0298023,246.986,24459.1
101,2,-0.00559792,0.0367895,-0.0206852,-381.706,24513
101,3,-0.000257339,0.0330892,-0.016222,-265.697,24513
101,4,0.005541,0.0311056,-0.0220203,-3.74222,24519
102,0,-0.00651344,0.0351492,-0.0185108,763.412,24417.2
102,1,-0.0158976,0.0404516,-0.0242329,325.573,24578.9
102,2,-0.0123118,0.0382391,-0.020647,-138.462,24653.7
102,3,-0.0188731,0.0340429,-0.0150394,-404.16,24635.8
102,4,-0.0165842,0.0318685,-0.0124073,18.7111,24653.7
103,0,-0.0256632,0.0343099,-0.0191975,621.208,24644.8
103,1,-0.0106715,0.0354162,-0.0211048,239.502,24659.7
103,2,-0.0149439,0.0389639,-0.0198841,-119.751,24752.5
103,3,-0.005102,0.0356069,-0.0175953,-486.488,24767.5
103,4,0.0080587,0.0310674,-0.011301,44.9066,24767.5
104,0,-0.00868782,0.0328985,-0.0150394,86.071,24752.5
104,1,-0.00742897,0.0349966,-0.0207233,452.808,24749.5
104,2,-0.0137232,0.0393835,-0.0230503,-11.2267,24794.4
104,3,-0.00727638,0.034844,-0.0182438,-628.693,24815.4
104,4,-0.00376686,0.0320593,-0.0158024,37.4222,24803.4
105,0,0.0158407,0.0281301,-0.0143528,276.924,24722.6
105,1,0.0092794,0.0348058,-0.0191593,490.231,24713.6
105,2,-0.00945076,0.0376287,-0.0226307,104.782,24755.5
105,3,-0.00414833,0.0343481,-0.0201511,-434.097,24776.5
105,4,-0.000829544,0.0336233,-0.0190067,-26.1955,24695.6
106,0,0.020075,0.0232092,-0.015192,-116.009,24590.9
106,1,0.00638023,0.0341573,-0.0188541,523.911,24554.9
106,2,0.00573174,0.0363699,-0.0235462,-18.7111,24519
106,3,0.0219442,0.0347295,-0.027132,-396.675,24587.9
106,4,0.0189687,0.0330892,-0.0198078,-654.888,24498.1
107,0,0.03747,0.026032,-0.0140095,-67.3599,24381.3
107,1,0.0422765,0.0336614,-0.0183201,318.089,24297.5
107,2,0.0248052,0.0370947,-0.0216389,-246.986,24288.5
107,3,0.0200369,0.0346151,-0.0307178,-374.222,24261.5
107,4,0.0204183,0.036141,-0.0194263,-1193.77,24228.6
108,0,-0.00292763,0.0307623,-0.0151539,-130.978,24132.8
108,1,-0.000181045,0.0330511,-0.0211811,82.3288,24001.1
108,2,0.015917,0.0353399,-0.0202274,-145.947,24025
108,3,0.027094,0.0409856,-0.0330067,-228.275,23941.2
108,4,0.0201513,0.0373235,-0.0190449,-1354.68,23938.2
109,0,0.0101949,0.0324789,-0.0162983,-130.978,23806.5
109,1,0.0228597,0.0320974,-0.0182819,198.338,23704.7
109,2,-0.00845894,0.0342718,-0.0199223,-160.915,23632.9
109,3,-0.019636,0.0422826,-0.0222874,-48.6488,23587.9
109,4,-0.000448074,0.0342718,-0.018549,-636.177,23558
110,0,0.00721947,0.0356832,-0.0179386,-209.564,23441.3
110,1,0.00893608,0.0303045,-0.0148869,-22.4533,23315.5
110,2,0.0100042,0.0348058,-0.0189304,385.448,23210.7
110,3,0.00206963,0.0357595,-0.0213718,119.751,23168.8
110,4,-0.0138758,0.0393835,-0.0213718,-168.4,23123.9
111,0,-0.00426277,0.0333944,-0.0188923,-246.986,23001.2
111,1,-0.00880226,0.0318304,-0.0101566,160.915,22875.4
111,2,-0.00102028,0.0340047,-0.0119114,1115.18,22641.9
111,3,-0.00563606,0.0343862,-0.0209141,299.377,22686.8
111,4,-0.00948891,0.0381628,-0.0229359,-250.729,22624
112,0,0.00611321,0.0338522,-0.0192356,-318.089,22492.2
112,1,-0.00414833,0.031983,-0.0161076,-11.2267,22387.4
112,2,-0.00224098,0.0285497,-0.014658,666.115,22216.8
112,3,-0.00468239,0.0349584,-0.0193119,314.346,22183.9
112,4,-0.0263117,0.0380865,-0.0241184,-441.582,22127
113,0,-0.0163554,0.0253835,-0.0190449,-497.715,22052.1
113,1,-0.0123881,0.0323644,-0.0192738,116.009,21992.3
113,2,-0.0359629,0.0241247,-0.0143147,3.74222,21875.5
113,3,-0.0374888,0.0331274,-0.0186253,606.239,21821.6
113,4,-0.0485514,0.0381628,-0.0224018,37.4222,21806.7
114,0,-0.0341319,0.0334325,-0.0223637,-355.511,21866.5
114,1,-0.0248621,0.0338522,-0.0197315,-97.2977,21764.7
114,2,-0.0219248,0.0248876,-0.013628,-3.74222,21689.9
114,3,-0.00742897,0.0329366,-0.0217152,276.924,21657
114,4,-0.028715,0.0363699,-0.0211048,26.1955,21686.9
115,0,-0.0123499,0.0351492,-0.0290775,-437.84,21713.8
115,1,0.00973717,0.0350729,-0.0200748,-770.897,21689.9
115,2,0.00493065,0.0324026,-0.0147343,-130.978,21639
115,3,-0.0026606,0.0321355,-0.0206852,348.026,21600.1
115,4,0.00615135,0.0353017,-0.0206089,41.1644,21636
116,0,-0.00346169,0.041863,-0.0311375,-527.653,21639
116,1,-0.00994667,0.0386205,-0.0198078,-1253.64,21719.8
116,2,-0.0109766,0.0337377,-0.0153446,-97.2977,21701.9
116,3,0.00527397,0.0323263,-0.0194645,340.542,21665.9
116,4,0.0147344,0.0353017,-0.0182056,-157.173,21728.8
117,0,0.00130669,0.0408331,-0.0235844,-138.462,21764.7
117,1,0.0152685,0.039002,-0.0202656,-770.897,21860.5
117,2,0.0206091,0.0330511,-0.0179005,-198.338,21830.6
117,3,0.004244,0.0319067,-0.0145054,127.235,21836.6
117,4,0.00615135,0.0349966,-0.0193119,250.729,21839.6
118,0,0.0199987,0.0360265,-0.0222492,179.626,21929.4
118,1,0.00260368,0.0391546,-0.020647,-389.191,21980.3
118,2,0.0074102,0.0337377,-0.0190449,-239.502,21956.3
118,3,0.0159933,0.0308767,-0.010004,3.74222,21941.4
118,4,0.00088707,0.0345007,-0.0153065,853.226,21818.6
119,0,0.00119225,0.0343099,-0.0201511,235.76,21947.4
119,1,-0.00990852,0.0383916,-0.0221348,-479.004,21974.3
119,2,0.0171758,0.0347295,-0.0195789,-314.346,21914.4
119,3,0.018778,0.0320211,-0.016222,-86.071,21872.5
119,4,0.0179769,0.0291601,-0.0140476,711.021,21776.7
120,0,0.0442983,0.0345388,-0.0183964,400.417,21815.6
120,1,0.0344183,0.0377813,-0.0228596,-112.267,21764.7
120,2,0.0192739,0.0348058,-0.0191593,-456.551,21695.9
120,3,0.0253774,0.0339285,-0.0174046,44.9066,21660
120,4,0.0119497,0.0235906,-0.0144291,44.9066,21555.2
121,0,0.0145818,0.0330892,-0.017519,583.786,21501.3
121,1,0.0312521,0.0373998,-0.0234318,-11.2267,21498.3
121,2,0.019808,0.0342336,-0.0225163,-467.777,21561.2
121,3,-0.0104044,0.0336996,-0.0180912,-97.2977,21462.4
121,4,-0.000524368,0.0255743,-0.0143528,-22.4533,21399.5
122,0,-0.00670418,0.0330892,-0.0154591,527.653,21423.4
122,1,-0.0101374,0.0372854,-0.0216007,116.009,21450.4
122,2,-0.0294779,0.0337759,-0.0269032,-542.622,21540.2
122,3,-0.019369,0.0335851,-0.0194645,-819.546,21567.2
122,4,-0.0134943,0.0302282,-0.0151539,-86.071,21588.1
123,0,-0.0309275,0.0328603,-0.020113,392.933,21612.1
123,1,-0.021963,0.0353017,-0.0209522,-11.2267,21755.8
123,2,-0.00910744,0.0406805,-0.0301456,-258.213,21809.6
123,3,-0.0200556,0.0362173,-0.0198078,-1216.22,22001.2
123,4,-0.0130747,0.0326696,-0.0166416,-138.462,22043.2
124,0,-0.00784859,0.0320974,-0.0195026,325.573,22112
124,1,-0.0372218,0.0326315,-0.019846,-235.76,22255.7
124,2,-0.0276087,0.0430837,-0.0239658,-175.884,22372.5
124,3,-0.0145625,0.0378576,-0.0209141,-1115.18,22537.1
124,4,-0.010557,0.0328603,-0.0156116,-157.173,22585
125,0,-0.0119303,0.0305715,-0.0165272,123.493,22653.9
125,1,-0.00563606,0.0346914,-0.0172138,78.5866,22752.7
125,2,0.00775352,0.0362554,-0.0213337,52.3911,22887.4
125,3,-0.0208567,0.0393072,-0.0218678,-284.409,23031.1
125,4,-0.0252818,0.0342336,-0.0189304,-235.76,23067
126,0,-0.00670418,0.0299993,-0.0118351,29.9377,23126.9
126,1,-0.0153635,0.0350347,-0.0140858,733.475,23055.1
126,2,-0.0242136,0.0341192,-0.0217533,243.244,23207.7
126,3,-0.0286005,0.0383916,-0.0212193,-239.502,23369.4
126,4,-0.00990852,0.0317922,-0.0196171,-374.222,23378.4
127,0,-6.66045e-05,0.0328603,-0.0173283,-29.9377,23411.3
127,1,0.0121786,0.0288168,-0.0135136,673.599,23387.4
127,2,0.0270177,0.0370184,-0.017519,355.511,23471.2
127,3,0.022936,0.0380865,-0.0232792,-130.978,23501.1
127,4,0.021639,0.0346151,-0.0200367,-501.457,23519.1
128,0,0.0317861,0.0328603,-0.0220585,-33.68,23498.1
128,1,0.0282384,0.0240484,-0.0145054,74.8444,23450.2
128,2,-0.000982132,0.0347295,-0.0186634,430.355,23426.3
128,3,0.00679985,0.0367132,-0.0226688,-71.1021,23438.3
128,4,0.0250341,0.0339285,-0.02244,-392.933,23465.2
129,0,0.0154592,0.0343099,-0.0192738,-101.04,23396.3
129,1,0.0310232,0.0285879,-0.0159931,-33.68,23300.5
129,2,0.0391485,0.0320211,-0.0195789,527.653,23240.7
129,3,0.0162603,0.0359884,-0.0212193,-595.013,23243.7
129,4,0.00374809,0.039002,-0.0306416,-385.448,23228.7
130,0,0.00573174,0.0367513,-0.0199604,-838.257,23165.8
130,1,0.00752464,0.0325552,-0.0158024,-149.689,23052.1
130,2,-0.00849709,0.0333562,-0.0194645,377.964,22950.3
130,3,-0.0176524,0.0393453,-0.0196171,-3.74222,22926.3
130,4,-0.00910744,0.0420919,-0.0261402,-258.213,22851.5
131,0,-0.0152491,0.0372854,-0.0222492,-1287.32,22842.5
131,1,-0.0149439,0.0326315,-0.0196171,-217.049,22707.8
131,2,-0.00140175,0.0321355,-0.0140476,239.502,22585
131,3,-0.0120448,0.0340429,-0.0174427,-101.04,22543.1
131,4,-0.0245951,0.0378576,-0.0208378,-63.6177,22459.3
132,0,-0.0225733,0.0382391,-0.0215626,-1148.86,22414.4
132,1,-0.0167368,0.0348821,-0.0187016,-14.9689,22294.6
132,2,-0.0146387,0.0281683,-0.0105762,104.782,22150.9
132,3,-0.00636085,0.0336996,-0.0148106,-89.8132,22052.1
132,4,-0.0058268,0.0355688,-0.0193119,-97.2977,21986.3
133,0,-0.0158595,0.0385442,-0.0234699,-479.004,21908.4
133,1,-0.0155924,0.0348821,-0.0171375,-164.658,21806.7
133,2,-0.000600662,0.0325552,-0.0142765,56.1333,21692.9
133,3,-0.00372871,0.0293127,-0.0159168,654.888,21498.3
133,4,-0.0110911,0.0344625,-0.0184345,228.275,21546.2
134,0,-0.00487312,0.0372472,-0.0223637,-202.08,21513.3
134,1,-0.00742897,0.0346914,-0.0200748,-407.902,21393.5
134,2,-0.0220774,0.0320974,-0.0181675,-22.4533,21312.7
134,3,-0.00483498,0.0239721,-0.0144291,845.741,21151
134,4,0.00874535,0.0341955,-0.0181675,392.933,21166
135,0,-0.0331782,0.0377813,-0.0227833,-202.08,21121.1
135,1,-0.0210856,0.0342336,-0.0230885,-333.057,21004.3
135,2,0.00187889,0.0348058,-0.019083,127.235,20935.5
135,3,0.0206472,0.027329,-0.0142384,52.3911,20770.8
135,4,0.0147726,0.0333944,-0.0180149,520.168,20660
136,0,0.0136282,0.0364843,-0.02244,-636.177,20552.3
136,1,0.017481,0.0352636,-0.0290775,-415.386,20477.4
136,2,0.0124837,0.0346914,-0.0194645,-145.947,20255.9
136,3,0.017214,0.0313726,-0.0153828,37.4222,20034.3
136,4,0.0198461,0.0326315,-0.0185871,437.84,19818.8
137,0,0.0119878,0.0343862,-0.0200748,-33.68,19648.1
137,1,0.00889793,0.0402609,-0.0316334,-422.871,19504.4
137,2,0.0227453,0.0368658,-0.0185108,-834.515,19261.9
137,3,0.0302221,0.0282827,-0.0158405,-209.564,18998.5
137,4,0.046816,0.0316778,-0.0190067,228.275,18729.1
138,0,0.035639,0.0344625,-0.0181293,-56.1333,18555.4
138,1,0.0125982,0.0420538,-0.0228214,-149.689,18372.8
138,2,0.0230123,0.0383154,-0.0207233,-1309.78,18208.1
138,3,0.00947014,0.0343099,-0.0172138,-108.524,17965.6
138,4,0.0132848,0.0311437,-0.0164127,213.306,17717.2
139,0,0.0181295,0.035378,-0.0167942,-112.267,17588.4
139,1,-0.00491127,0.0361791,-0.0225925,628.693,17423.8
139,2,-0.0104426,0.0396886,-0.0212955,-651.146,17342.9
139,3,0.00947014,0.0340047,-0.0182438,-202.08,17151.3
139,4,0.012026,0.0314108,-0.0106525,112.267,16998.7
140,0,0.0167944,0.0336996,-0.016222,460.293,16816
140,1,0.0370504,0.0348821,-0.0205708,127.235,16786.1
140,2,0.0219823,0.0383154,-0.0228214,-348.026,16750.2
140,3,0.0264074,0.034577,-0.0187016,-348.026,16630.4
140,4,0.0156499,0.034577,-0.0170612,14.9689,16534.6
141,0,0.000391159,0.030953,-0.0134373,823.288,16358
141,1,-0.0205897,0.0336614,-0.0168705,718.506,16387.9
141,2,-0.0265025,0.0383154,-0.0195026,-179.626,16381.9
141,3,0.00527397,0.0340429,-0.0184727,-437.84,16289.1
141,4,0.00611321,0.031983,-0.0194645,52.3911,16247.2
142,0,0.00203148,0.0238577,-0.0143909,172.142,16151.4
142,1,0.011263,0.0356832,-0.0177097,587.528,16082.6
142,2,0.0049688,0.0377432,-0.0236225,-108.524,16040.6
142,3,-0.00830635,0.0336614,-0.0223637,-598.755,16022.7
142,4,0.000238571,0.0337759,-0.0191593,-48.6488,15888
143,0,-0.00658974,0.0268331,-0.0143528,-213.306,15723.3
143,1,-0.0173853,0.0328222,-0.0193119,452.808,15567.6
143,2,-0.0191019,0.0351873,-0.0224018,-26.1955,15486.8
143,3,-0.0212,0.034577,-0.0307178,-415.386,15316.2
143,4,0.000162277,0.0354543,-0.0196552,-703.537,15166.5
144,0,-0.0038813,0.0325933,-0.0145435,-67.3599,14897
144,1,-0.00849709,0.031983,-0.0200748,392.933,14624.6
144,2,-0.016775,0.0352636,-0.0244617,-44.9066,14445
144,3,-0.0319575,0.0387731,-0.0305271,-333.057,14223.4
144,4,-0.0132655,0.0360265,-0.021143,-1302.29,14007.9
145,0,-0.00720009,0.0340429,-0.0145054,-291.893,13693.5
145,1,0.00531212,0.0316778,-0.0195789,303.12,13400.1
145,2,0.0184728,0.034577,-0.0193501,-123.493,13175.6
145,3,0.0220586,0.0417486,-0.0243855,-119.751,12927.1
145,4,0.01256,0.0370184,-0.0208378,-688.568,12741.5
146,0,0.0146581,0.0342718,-0.0167561,-239.502,12460.1
146,1,0.0106145,0.0312963,-0.0177097,149.689,12220.6
146,2,0.00557915,0.03328,-0.0178242,48.6488,11987.1
146,3,-6.66045e-05,0.0380865,-0.021677,138.462,11867.3
146,4,-0.0194834,0.0391927,-0.021944,-449.066,11801.5
147,0,-0.0156687,0.034081,-0.0182056,-157.173,11556
147,1,-0.0240611,0.0309148,-0.0105762,93.5555,11385.3
147,2,-0.0382517,0.0353017,-0.0139332,669.857,11148.8
147,3,-0.0273035,0.0349584,-0.0217152,228.275,11163.8
147,4,-0.0342081,0.0396886,-0.0212574,-246.986,11163.8
148,0,-0.0467585,0.0351492,-0.0183582,-318.089,10978.2
148,1,-0.0263499,0.0314108,-0.00969887,116.009,10891.4
148,2,-0.0321864,0.0331274,-0.0174809,797.092,10708.7
148,3,-0.0483988,0.0352636,-0.0189304,527.653,10696.8
148,4,-0.044546,0.0385061,-0.0231266,-179.626,10660.8
149,0,-0.026655,0.0356451,-0.017519,-505.199,10586
149,1,-0.0181483,0.0323263,-0.0177097,-78.5866,10487.2
149,2,-0.0251673,0.0281301,-0.0170231,142.204,10388.4
149,3,-0.00811562,0.0333944,-0.0190449,449.066,10292.6
149,4,-0.0262354,0.0390401,-0.0226307,33.68,10247.7
150,0,-0.0429057,0.0333181,-0.019083,-482.746,10208.8
150,1,-0.0330637,0.0334325,-0.0189686,14.9689,10113
150,2,-0.019369,0.0235143,-0.0143909,-22.4533,9990.23
150,3,-0.0174235,0.035378,-0.0174046,404.16,9897.42
150,4,-0.0217722,0.0368276,-0.021944,0,9885.44
151,0,-0.0166605,0.0355688,-0.0232029,-381.706,9972.26
151,1,-0.0136851,0.0332037,-0.0200367,-849.484,9834.55
151,2,0.00229851,0.0290456,-0.0129414,-26.1955,9732.76
151,3,-0.00449165,0.0334707,-0.0189304,561.333,9714.8
151,4,0.00290886,0.0357214,-0.0209141,37.4222,9687.85
152,0,-0.000409927,0.0358358,-0.0302219,-280.666,9690.85
152,1,0.0011541,0.0358739,-0.0196552,-1429.53,9747.73
152,2,0.0337698,0.0320974,-0.0153065,-187.111,9705.82
152,3,0.0300314,0.0326315,-0.0161076,318.089,9705.82
152,4,0.0219061,0.0358739,-0.0205708,-213.306,9774.67
153,0,0.0136663,0.0393072,-0.0312138,-149.689,9843.53
153,1,0.019045,0.0362173,-0.0203037,-883.163,9969.27
153,2,0.0343038,0.0335088,-0.0170231,-164.658,10005.2
153,3,0.0573446,0.0316396,-0.0189304,172.142,10068.1
153,4,0.0401022,0.0345388,-0.018549,138.462,10160.9
154,0,0.0249197,0.0422063,-0.0233173,82.3288,10346.5
154,1,0.0317861,0.0380102,-0.02141,-407.902,10523.1
154,2,0.0486852,0.0340047,-0.0169468,-280.666,10657.8
154,3,0.0645544,0.0316778,-0.0161839,-235.76,10810.5
154,4,0.0455572,0.0360265,-0.0184345,714.764,10840.5
155,0,0.0501348,0.0357595,-0.0222874,299.377,11175.8
155,1,0.049677,0.0384679,-0.0229359,-336.8,11394.3
155,2,0.0349523,0.0341573,-0.0179768,-404.16,11544
155,3,0.0387289,0.0316015,-0.0108051,-59.8755,11720.6
155,4,0.0464727,0.0345388,-0.015955,767.155,11810.4
156,0,0.030451,0.0345007,-0.0219822,456.551,12064.9
156,1,0.00599876,0.0390401,-0.022707,-198.338,12250.5
156,2,0.0118353,0.0339666,-0.018816,-329.315,12355.3
156,3,-0.018072,0.0320593,-0.0108814,52.3911,12511
156,4,-0.0150202,0.0330511,-0.0145435,355.511,12567.9
157,0,-0.0224207,0.0343099,-0.0200367,508.942,12705.6
157,1,-0.0326441,0.039002,-0.0233936,-71.1021,12816.3
157,2,-0.0270747,0.0356069,-0.0186253,-415.386,12927.1
157,3,-0.0171564,0.0318685,-0.0171375,11.2267,12957.1
157,4,-0.00803932,0.0259557,-0.0144672,7.48444,12948.1
158,0,-0.0224589,0.0340047,-0.0188541,568.817,13005
158,1,-0.0257777,0.0385442,-0.0221348,82.3288,13082.8
158,2,-0.0112818,0.0341573,-0.0193119,-505.199,13199.6
158,3,-0.0117396,0.0348058,-0.0199223,-93.5555,13172.6
158,4,-0.0171946,0.0232473,-0.0151539,-97.2977,13139.7
159,0,-0.00296577,0.0311819,-0.0181675,512.684,13139.7
159,1,-0.0116633,0.0367132,-0.0221348,-116.009,13202.5
159,2,-0.0202082,0.0351492,-0.0260258,-303.12,13271.4
159,3,-0.00586494,0.0326315,-0.0206089,-1103.95,13292.4
159,4,0.0208379,0.0306097,-0.0139332,-123.493,13247.5
160,0,0.0192739,0.0328603,-0.0207233,355.511,13223.5
160,1,-0.00151619,0.0356451,-0.0207996,-37.4222,13265.4
160,2,0.0129415,0.0355306,-0.0309849,-303.12,13262.4
160,3,0.0117971,0.0356069,-0.0196934,-1081.5,13325.3
160,4,-0.00311836,0.0326315,-0.0172138,-205.822,13247.5
161,0,0.00370995,0.0315252,-0.0204182,217.049,13193.6
161,1,0.0143148,0.0353399,-0.0195789,157.173,13181.6
161,2,-0.00315651,0.040032,-0.0277805,-142.204,13178.6
161,3,0.00535027,0.0373235,-0.0216389,-759.67,13196.6
161,4,0.0119878,0.0330511,-0.0172138,-228.275,13079.8
162,0,-0.0160502,0.03225,-0.0179386,119.751,12990
162,1,-0.0275324,0.0349203,-0.0166416,190.853,12861.3
162,2,-0.0220393,0.0399557,-0.0226307,89.8132,12867.2
162,3,-0.0185679,0.0382772,-0.021143,-385.448,12816.3
162,4,-0.0165079,0.0337759,-0.0190067,-310.604,12675.6
163,0,-0.0221156,0.0313726,-0.0108814,97.2977,12534.9
163,1,-0.0143336,0.0353399,-0.0161839,658.63,12289.4
163,2,-0.0183772,0.0341573,-0.0218678,246.986,12271.5
163,3,-0.025854,0.0417104,-0.0207233,-202.08,12148.7
163,4,0.000925217,0.0354925,-0.0143909,-673.599,11924.2
164,0,0.00851646,0.030686,-0.0121784,86.071,11717.6
164,1,-0.000295486,0.0322881,-0.0150394,692.31,11442.2
164,2,0.0105383,0.0336614,-0.0200367,718.506,11256.6
164,3,0.00161186,0.0393835,-0.0227833,-246.986,11044
164,4,0.00142113,0.0343481,-0.0186634,-351.768,10756.6
165,0,0.0111868,0.0321737,-0.0188541,71.1021,10454.3
165,1,0.0201131,0.0258031,-0.0138187,273.182,10122
165,2,0.0345327,0.034844,-0.0188541,479.004,9873.47
165,3,0.0246908,0.0374761,-0.0232029,11.2267,9574.09
165,4,0.0382711,0.034577,-0.0195789,-351.768,9298.66
166,0,0.0346471,0.0320974,-0.0189304,-127.235,8987.31
166,1,0.0266363,0.0232854,-0.013895,-119.751,8646.02
166,2,0.0379659,0.0334707,-0.0194263,523.911,8391.55
166,3,0.0231649,0.0359884,-0.0237751,-71.1021,8173
166,4,9.68948e-06,0.0362173,-0.0267887,-475.262,8065.23
167,0,0.00451103,0.0324407,-0.0198078,-220.791,7795.79
167,1,0.0301458,0.0280538,-0.0140476,-93.5555,7568.26
167,2,0.0099279,0.0332418,-0.0187397,441.582,7394.62
167,3,-0.00250801,0.0365606,-0.02244,-265.697,7337.74
167,4,-0.0151347,0.0346151,-0.0281239,-385.448,7256.91
168,0,-0.011854,0.0358358,-0.0188923,-1182.54,7200.03
168,1,-0.0122355,0.0309148,-0.0151157,-56.1333,7086.26
168,2,-0.0187205,0.0326696,-0.019083,261.955,7023.39
168,3,-0.00498756,0.0368276,-0.0207996,-71.1021,6939.57
168,4,-0.0101756,0.0376287,-0.0319004,-273.182,6999.44
169,0,-0.0101756,0.0362936,-0.0191593,-1122.67,7023.39
169,1,-0.0101756,0.0320593,-0.0168705,-134.72,6933.58
169,2,-0.0166224,0.0324789,-0.0193501,179.626,6864.72
169,3,-0.0400828,0.0350347,-0.0200367,-157.173,6861.73
169,4,-0.0334834,0.0417867,-0.0261402,11.2267,6849.76
170,0,-0.0296305,0.0383916,-0.0205326,-602.497,6855.74
170,1,-0.0297449,0.0329366,-0.0178623,-48.6488,6771.92
170,2,-0.005102,0.032784,-0.0167179,56.1333,6679.11
170,3,0.00378624,0.0345388,-0.0186634,419.128,6598.28
170,4,0.0011541,0.0404134,-0.0223637,179.626,6619.24
171,0,-0.0160883,0.0386968,-0.0201893,-284.409,6646.18
171,1,-0.00750526,0.0354543,-0.0179768,-351.768,6568.34
171,2,-0.00609383,0.0318304,-0.0125599,82.3288,6529.42
171,3,-0.0296687,0.0353017,-0.0170231,879.421,6388.71
171,4,-0.00914558,0.0365224,-0.0208378,400.417,6541.4
172,0,-0.0105189,0.039002,-0.0223637,-116.009,6538.4
172,1,-0.00838264,0.0347677,-0.0179386,-430.355,6535.41
172,2,0.00649467,0.0306097,-0.0109196,67.3599,6502.48
172,3,-0.00349983,0.0347677,-0.0148487,351.768,6541.4
172,4,-0.0278376,0.0343862,-0.0208759,523.911,6580.32
173,0,-0.0228785,0.0398412,-0.0221348,-11.2267,6682.1
173,1,-0.0070475,0.0343481,-0.0185108,-520.168,6735.99
173,2,0.0116827,0.03225,-0.0118732,-37.4222,6795.87
173,3,0.00470177,0.0314108,-0.014658,48.6488,6792.87
173,4,-0.00319466,0.0354925,-0.0199604,493.973,6870.71
174,0,0.00847832,0.0393072,-0.0299168,-78.5866,6978.49
174,1,0.00798241,0.0308004,-0.0212955,-441.582,7167.1
174,2,-0.00285133,0.0318685,-0.0185108,-374.222,7191.05
174,3,0.0048925,0.0276342,-0.0136662,-112.267,7238.95
174,4,-0.00605568,0.0333944,-0.0192738,452.808,7322.77
175,0,-0.024824,0.0386587,-0.02244,366.737,7460.49
175,1,-0.0102518,0.0340047,-0.0196934,-370.48,7622.15
175,2,0.0061895,0.0329366,-0.0190449,-1077.76,7747.89
175,3,0.00786797,0.0240102,-0.013628,-134.72,7843.69
175,4,0.0024511,0.0323263,-0.0203419,269.44,7960.45
176,0,-0.00117287,0.0373235,-0.0229359,-71.1021,8152.05
176,1,0.00222221,0.0336614,-0.0234318,-276.924,8310.72
176,2,-0.00685677,0.0346151,-0.0196934,-1234.93,8538.24
176,3,0.00988976,0.0284353,-0.0143147,-209.564,8660.99
176,4,0.0127889,0.0329366,-0.0203419,194.595,8801.7
177,0,-0.0058268,0.0363317,-0.0222111,-74.8444,8996.29
177,1,-0.00620827,0.0389639,-0.032053,-145.947,9184.9
177,2,0.00187889,0.0359884,-0.0171757,-774.639,9439.37
177,3,0.0103475,0.0316778,-0.0156879,-116.009,9571.1
177,4,0.00916496,0.032784,-0.0199604,101.04,9720.79
178,0,0.0111105,0.0345388,-0.0213718,187.111,9894.42
178,1,0.00378624,0.0401083,-0.0309467,-415.386,10101
178,2,-0.00216469,0.0371709,-0.0195789,-407.902,10373.4
178,3,-0.00605568,0.0337759,-0.0165653,-130.978,10505.2
178,4,-0.000257339,0.0321737,-0.0198841,3.74222,10571
179,0,-0.0236414,0.0355306,-0.017786,688.568,10717.7
179,1,-0.0349711,0.0419775,-0.0249195,89.8132,10933.3
179,2,-0.017042,0.0385061,-0.020647,-254.471,11118.9
179,3,-0.0223826,0.0336614,-0.0166035,-276.924,11178.8
179,4,-0.0107859,0.0329366,-0.0170231,-11.2267,11265.6
180,0,-0.00235542,0.033814,-0.0180531,916.843,11226.7
180,1,-0.00567421,0.0382772,-0.0228596,336.8,11415.3
180,2,-0.00407204,0.0381628,-0.0286579,-291.893,11502.1
180,3,0.0180532,0.0327078,-0.0176334,-374.222,11523
180,4,0.0118353,0.0316778,-0.011797,78.5866,11547
181,0,0.00206963,0.0350729,-0.0157642,377.964,11514.1
181,1,0.00325218,0.0346151,-0.0221348,512.684,11585.9
181,2,-0.00803932,0.0393072,-0.0220966,-318.089,11615.8
181,3,0.00546471,0.0347295,-0.0196552,-411.644,11654.8
181,4,-0.00155434,0.0310293,-0.0105381,29.9377,11666.7
182,0,0.00687614,0.033547,-0.0156498,86.071,11672.7
182,1,0.0164129,0.0339285,-0.0216007,538.879,11681.7
182,2,0.00252739,0.0388876,-0.0221348,-3.74222,11756.6
182,3,0.0160696,0.0349584,-0.0189686,-430.355,11855.3
182,4,0.0121404,0.0320593,-0.0140476,-63.6177,11861.3
183,0,-0.0032328,0.0291601,-0.015192,-33.68,11861.3
183,1,-0.000676956,0.0348058,-0.0201893,595.013,11897.3
183,2,-0.006399,0.0386587,-0.0227451,-104.782,12011
183,3,-0.0166987,0.0344625,-0.0130558,-437.84,12196.6
183,4,-0.0144099,0.0308767,-0.0195789,-475.262,12181.7
184,0,-0.0192545,0.0245443,-0.013895,-138.462,12202.6
184,1,-0.00205025,0.0340429,-0.0189686,377.964,12247.5
184,2,-0.00712379,0.0375906,-0.0239277,22.4533,12385.2
184,3,0.00470177,0.0350729,-0.0183964,-853.226,12439.1
184,4,0.0253774,0.0324789,-0.0204945,-1014.14,12537.9
185,0,0.0239278,0.0240865,-0.0137043,-119.751,12531.9
185,1,0.0180914,0.0345007,-0.0184345,696.053,12570.9
185,2,0.026293,0.0370947,-0.021143,-153.431,12660.7
185,3,0.0244619,0.0337377,-0.0272465,-351.768,12696.6
185,4,0.0227834,0.033547,-0.0190449,-1324.75,12816.3
186,0,0.0404836,0.028359,-0.0149632,-187.111,12771.4
186,1,0.0367452,0.0342718,-0.0197697,202.08,12762.5
186,2,0.0123312,0.0358739,-0.0217915,-44.9066,12804.4
186,3,0.00531212,0.0366369,-0.0282001,202.08,12831.3
186,4,0.00786797,0.0391927,-0.0207996,-853.226,12891.2
187,0,0.0188161,0.0297704,-0.0145054,-187.111,12861.3
187,1,0.0102712,0.0329748,-0.0193882,149.689,12819.3
187,2,0.0142385,0.035378,-0.0205708,157.173,12792.4
187,3,0.00142113,0.0387731,-0.0324345,11.2267,12861.3
187,4,-0.00369057,0.0363317,-0.0202274,-269.44,12906.2
188,0,-0.00597939,0.031983,-0.0138569,-284.409,12885.2
188,1,0.00954643,0.0323644,-0.0194645,82.3288,12876.2
188,2,0.00538841,0.0336614,-0.0199986,1077.76,12834.3
188,3,0.00153557,0.0422445,-0.0273991,261.955,12969
188,4,-0.000791397,0.0369421,-0.0206089,-426.613,13055.9
189,0,-0.0265025,0.0333944,-0.0173664,-351.768,13082.8
189,1,-0.0336741,0.0309911,-0.0182819,-71.1021,13160.6
189,2,-0.032606,0.0350729,-0.0182438,774.639,13133.7
189,3,-0.0248621,0.0415197,-0.0229359,344.284,13310.3
189,4,-0.0318049,0.037705,-0.0213337,-209.564,13415.1
190,0,-0.036497,0.0352636,-0.0177479,-512.684,13460
190,1,-0.0182627,0.0285497,-0.0146198,3.74222,13510.9
190,2,-0.0172709,0.0361791,-0.016222,325.573,13516.9
190,3,-0.0145625,0.0349584,-0.0212955,374.222,13561.8
190,4,-0.0281428,0.0389639,-0.0222492,-116.009,13600.7
191,0,-0.0291727,0.035111,-0.0174427,-456.551,13603.7
191,1,-0.0236414,0.0305334,-0.0109196,-93.5555,13567.8
191,2,-0.00426277,0.0344244,-0.0137424,14.9689,13489.9
191,3,-0.0158595,0.0344625,-0.0198841,243.244,13379.2
191,4,-0.0433634,0.0386587,-0.0236607,33.68,13331.3
192,0,-0.0213908,0.0355306,-0.0167942,-381.706,13310.3
192,1,-0.00124916,0.0308004,-0.0153446,-157.173,13121.7
192,2,-0.00651344,0.0299993,-0.0140476,-18.7111,12966
192,3,-0.0205134,0.0341955,-0.0195408,471.519,12831.3
192,4,-0.0158595,0.0382772,-0.023241,-134.72,12780.4
193,0,-0.000867691,0.0351873,-0.0181675,-355.511,12840.3
193,1,-0.00945076,0.0352255,-0.0180531,-681.084,12648.7
193,2,0.00657097,0.0232092,-0.0139713,-168.4,12552.9
193,3,0.00405327,0.0311437,-0.0194645,381.706,12484
193,4,-0.0176524,0.0372091,-0.0237751,-82.3288,12511
194,0,-0.0104426,0.0347295,-0.020113,-404.16,12511
194,1,0.0106527,0.0324026,-0.0190067,-1032.85,12588.8
194,2,-0.0180338,0.0240102,-0.0164127,-160.915,12609.8
194,3,-0.0257014,0.0335851,-0.017786,456.551,12630.7
194,4,-0.0215815,0.0376287,-0.0226307,-295.635,12735.5
195,0,-0.00334724,0.034577,-0.0232792,-183.369,12825.3
195,1,0.0035955,0.0339666,-0.0186634,-1309.78,12951.1
195,2,0.00199333,0.027329,-0.0153065,-59.8755,12987
195,3,0.0158025,0.0333562,-0.0183201,228.275,12996
195,4,0.0131704,0.0370947,-0.0217152,-29.9377,13061.8
196,0,0.0249578,0.0349203,-0.0293827,-14.9689,13055.9
196,1,0.0366308,0.0356832,-0.0193501,-677.341,13187.6
196,2,0.0228979,0.0301519,-0.0159931,-220.791,13142.7
196,3,0.0111105,0.0327459,-0.0202656,130.978,13109.7
196,4,0.0108053,0.0357977,-0.0204563,202.08,13055.9
197,0,0.00443474,0.0392309,-0.0318623,187.111,13088.8
197,1,0.00260368,0.0370184,-0.0196171,-501.457,13109.7
197,2,0.00798241,0.0317159,-0.0165653,-258.213,13025.9
197,3,0.0219061,0.0317159,-0.0154972,18.7111,12987
197,4,0.0249197,0.0357214,-0.0177479,583.786,12861.3
198,0,0.00287071,0.0422063,-0.0270939,168.4,12945.1
198,1,0.0121786,0.0375143,-0.0202656,-175.884,12996
198,2,0.0170995,0.0324789,-0.0182056,-351.768,12963
198,3,0.00733391,0.03122,-0.0151157,67.3599,12990
198,4,0.00329033,0.0355688,-0.0182438,823.288,12876.2
199,0,0.005541,0.0385061,-0.0217533,370.48,13058.8
199,1,-0.00464424,0.0388494,-0.021677,-276.924,13160.6
199,2,0.0143148,0.0351873,-0.0187778,-486.488,13190.6
199,3,0.035639,0.0292364,-0.0130177,33.68,13298.3
199,4,0.0167944,0.0340047,-0.0167561,523.911,13298.3
200,0,0.00187889,0.0349203,-0.0217152,426.613,13421.1
200,1,-0.0125788,0.0378957,-0.022707,-172.142,13555.8
200,2,0.010729,0.0351492,-0.0183582,-426.613,13639.6
200,3,0.014353,0.0308767,-0.0116062,-14.9689,13711.5
200,4,0.00405327,0.0354543,-0.0124454,3.74222,13753.4
201,0,0.0112249,0.033547,-0.0205326,542.622,13852.2
201,1,-0.0214289,0.039269,-0.0232029,-138.462,13969
201,2,-0.0276087,0.0355688,-0.0171757,-400.417,14112.7
201,3,-6.66045e-05,0.0311819,-0.0158024,-239.502,14130.6
201,4,-0.00243172,0.0303045,-0.0157261,-145.947,14145.6
202,0,-0.011587,0.0346532,-0.019083,628.693,14223.4
202,1,-0.00670418,0.0385061,-0.0232029,33.68,14346.2
202,2,-0.00346169,0.0350729,-0.0175571,-422.871,14522.8
202,3,-0.0095652,0.0313726,-0.0192738,-520.168,14609.6
202,4,-0.000867691,0.0272146,-0.0145817,-97.2977,14636.6
203,0,-0.00246986,0.0330511,-0.0186634,598.755,14732.4
203,1,0.00657097,0.0376287,-0.0235081,67.3599,14932.9
203,2,-0.0106333,0.0342718,-0.0187016,-381.706,15115.6
203,3,0.000276718,0.0328603,-0.0193501,-1111.44,15334.1
203,4,0.0157262,0.0235906,-0.0143909,-74.8444,15412
204,0,0.0080587,0.0363317,-0.0203419,434.097,15609.5
204,1,-0.00620827,0.0372472,-0.0230885,-145.947,15873
204,2,0.00466362,0.0332418,-0.022707,-265.697,16178.4
204,3,-0.0133799,0.0334325,-0.0187016,-1321,16435.8
204,4,-0.0107096,0.0269476,-0.0150776,-157.173,16621.4
205,0,0.00863091,0.0332037,-0.0180149,228.275,16795.1
205,1,0.00290886,0.0373998,-0.0212193,-134.72,17049.5
205,2,-0.0139521,0.0340047,-0.0283909,-119.751,17259.1
205,3,-0.0137614,0.0349203,-0.0198078,-1010.4,17483.6
205,4,0.000963364,0.0311056,-0.0146961,-123.493,17633.3
206,0,0.00226036,0.0333944,-0.0197315,108.524,17738.1
206,1,-0.0164317,0.0357977,-0.0195789,239.502,17848.9
206,2,-0.00521645,0.0384298,-0.031786,112.267,18028.5
206,3,-0.000219192,0.0372472,-0.0207615,-377.964,18172.2
206,4,-0.00197395,0.0321355,-0.0166035,-190.853,18232.1
207,0,0.006838,0.032517,-0.0205708,-108.524,18303.9
207,1,-0.00117287,0.0388494,-0.0186253,681.084,18292
207,2,-0.00884041,0.0415578,-0.0276279,183.369,18555.4
207,3,0.0102331,0.0377432,-0.0205326,-145.947,18708.1
207,4,0.00145927,0.0326696,-0.0164127,-310.604,18818.9
208,0,-0.00876411,0.030953,-0.019846,-11.2267,18983.5
208,1,-0.016012,0.0352255,-0.021143,868.195,19088.3
208,2,-0.0152491,0.0416341,-0.0227451,187.111,19375.7
208,3,0.00317589,0.0380865,-0.0212955,-232.018,19660.1
208,4,0.00527397,0.0335851,-0.019083,-490.231,19926.6
209,0,0.0343801,0.0317922,-0.0137806,-59.8755,20222.9
209,1,0.0301839,0.0328603,-0.0189686,198.338,20453.5
209,2,0.0123693,0.0360265,-0.0217152,490.231,20866.6
209,3,0.0159551,0.0383916,-0.02244,-59.8755,21267.8
209,4,0.0202657,0.0346151,-0.0183201,-415.386,21582.1
210,0,0.018778,0.0317922,-0.0105,280.666,22043.2
210,1,0.0146963,0.0349203,-0.0150776,-883.163,22330.6
210,2,0.00947014,0.0306478,-0.0234318,497.715,22773.6
210,3,-0.0195216,0.0391164,-0.0212574,-89.8132,23234.7
210,4,-0.0123881,0.0353017,-0.0186634,-475.262,23725.7
211,0,-0.00193581,0.0323644,-0.0138187,-265.697,24078.9
211,1,0.0118734,0.0327459,-0.0142002,-26.1955,24450.2
211,2,0.006838,0.034081,-0.0172901,639.919,24842.3
211,3,-0.00792488,0.0383154,-0.0226688,-93.5555,25279.4
211,4,0.0147344,0.035111,-0.0180531,-400.417,25803.3
212,0,-0.000333633,0.0316778,-0.0181293,-71.1021,26141.6
212,1,-0.0119303,0.0287023,-0.014925,-160.915,26459
212,2,0.00840202,0.0336996,-0.0190449,437.84,26824.2
212,3,-0.0170802,0.0378194,-0.0232029,0,27243.3
212,4,-0.0216196,0.0341192,-0.0183582,-295.635,27638.5
213,0,-0.00681862,0.0333562,-0.0244999,-1365.91,28060.6
213,1,-0.0210093,0.0232092,-0.0142384,-232.018,28327.1
213,2,-0.0336359,0.0341573,-0.0195408,651.146,28680.4
213,3,-0.0264262,0.0370565,-0.0224781,-123.493,29060.6
213,4,-0.0241755,0.0331274,-0.0217533,-134.72,29398.9
214,0,-0.00617012,0.0337377,-0.0219059,-1695.22,29800
214,1,-0.00376686,0.0261465,-0.0140095,-172.142,30051.5
214,2,0.00145927,0.0333181,-0.0182438,112.267,30392.8
214,3,-6.66045e-05,0.0415197,-0.0212193,-553.848,30758
214,4,-0.00655159,0.0343481,-0.0280094,-101.04,31081.4
215,0,0.000276718,0.0339666,-0.020647,-1017.88,31467.6
215,1,0.00283257,0.0310674,-0.0148869,-782.124,31707.1
215,2,-0.0120066,0.0327078,-0.0209904,217.049,31961.5
215,3,-0.0137614,0.0357595,-0.0217152,41.1644,32275.9
215,4,-0.0195216,0.0388494,-0.0315571,89.8132,32506.4
216,0,-0.0328349,0.0366369,-0.0198841,-677.341,32775.8
216,1,-0.026655,0.0326696,-0.012064,-157.173,32871.6
216,2,-0.00735268,0.0320211,-0.0207996,-52.3911,33072.2
216,3,0.0130941,0.0353017,-0.019846,269.44,33096.2
216,4,0.00863091,0.0427786,-0.0258732,235.76,33317.7
217,0,0.0159551,0.037705,-0.020647,-318.089,33440.5
217,1,0.0261785,0.03328,-0.0171757,-145.947,33440.5
217,2,0.0305273,0.0320974,-0.0170994,-198.338,33443.5
217,3,0.027094,0.035378,-0.0182438,935.555,33275.8
217,4,0.0153066,0.0381246,-0.0225163,396.675,33374.6
218,0,0.00786797,0.0385442,-0.0204945,-220.791,33347.7
218,1,-0.00117287,0.0343481,-0.0183201,-456.551,33260.8
218,2,0.00962273,0.0309148,-0.0124454,145.947,33174
218,3,0.00100151,0.0356832,-0.0159931,621.208,33024.3
218,4,-0.0146769,0.0342336,-0.0222874,434.097,33009.4
219,0,-0.0173853,0.0393453,-0.0231266,-486.488,32922.5
219,1,0.00599876,0.0349584,-0.0182438,-445.324,32832.7
219,2,0.0140478,0.0332037,-0.0112629,190.853,32802.8
219,3,-0.00887856,0.03328,-0.0143147,104.782,32629.1
219,4,-0.00437721,0.0341955,-0.020113,523.911,32572.3
220,0,-0.0105952,0.0409856,-0.0235462,22.4533,32566.3
220,1,0.00252739,0.0352636,-0.0182438,-823.288,32554.3
220,2,0.00710503,0.0314108,-0.0199986,-134.72,32518.4
220,3,-0.00113472,0.0282064,-0.0146961,59.8755,32455.5
220,4,-0.00872597,0.034081,-0.0198841,430.355,32428.6
221,0,0.00821129,0.0398031,-0.0236225,-14.9689,32455.5
221,1,0.0218679,0.0344625,-0.0188923,-348.026,32581.2
221,2,0.000848923,0.0336614,-0.0185108,-366.737,32503.4
221,3,0.0010778,0.022904,-0.015192,-205.822,32446.5
221,4,-0.000867691,0.033814,-0.0187016,557.59,32416.6
222,0,-0.00189766,0.0370565,-0.0222874,362.995,32446.5
222,1,-0.00212654,0.0338522,-0.0228214,-314.346,32467.5
222,2,-0.0133418,0.034844,-0.0192356,-819.546,32455.5
222,3,-0.000676956,0.0257269,-0.0161457,-396.675,32323.8
222,4,-0.014715,0.0336614,-0.0196552,310.604,32284.9
223,0,-0.0165461,0.0366369,-0.0225163,-134.72,32299.8
223,1,0.00763908,0.0363317,-0.030489,-348.026,32254.9
223,2,0.000734482,0.0358358,-0.0187397,-1298.55,32243
223,3,-0.00788673,0.0317159,-0.0132084,-29.9377,32144.2
223,4,0.0080587,0.0326696,-0.0198841,205.822,32036.4
224,0,-0.00445351,0.0345007,-0.0203419,-119.751,31979.5
224,1,-0.0109003,0.041596,-0.029192,-18.7111,31919.6
224,2,0.000581894,0.037438,-0.0185108,-958.008,31892.7
224,3,0.00329033,0.0323263,-0.0170231,-479.004,31734
224,4,0.00645653,0.0324407,-0.0198078,18.7111,31620.2
225,0,-0.00933632,0.0354543,-0.0177479,-101.04,31500.5
225,1,-0.015478,0.0410238,-0.0239277,-329.315,31437.6
225,2,-0.000142898,0.0396886,-0.0204563,-505.199,31392.7
225,3,-0.00521645,0.0336996,-0.0176716,-280.666,31255
225,4,0.0116445,0.0352636,-0.013628,310.604,31147.2
226,0,0.0215627,0.0354162,-0.0159168,550.106,30952.6
226,1,0.0135519,0.034577,-0.0233936,194.595,30982.6
226,2,0.00672356,0.0395742,-0.0212193,-246.986,30970.6
226,3,0.0172903,0.0340047,-0.0191212,-217.049,30889.8
226,4,0.00855461,0.0317922,-0.0105,48.6488,30850.8
227,0,-0.00990852,0.0343099,-0.0158405,849.484,30728.1
227,1,-0.0130747,0.0341955,-0.020647,471.519,30874.8
227,2,-0.0155161,0.0380865,-0.0228596,-224.533,30961.6
227,3,-0.00590309,0.0349203,-0.0196552,-460.293,31027.5
227,4,0.0093557,0.0318304,-0.0137806,-59.8755,31117.3
228,0,0.0259115,0.0310293,-0.0153446,572.559,31210.1
228,1,0.0144292,0.0345007,-0.0198078,542.622,31410.7
228,2,-0.00758156,0.0386205,-0.0232792,160.915,31632.2
228,3,0.00702873,0.0347295,-0.0177479,-464.035,31847.8
228,4,0.000963364,0.0324789,-0.0180912,-14.9689,32093.3
229,0,-0.00246986,0.0275961,-0.0139332,621.208,32251.9
229,1,0.0144292,0.0344625,-0.018549,471.519,32566.3
229,2,0.00374809,0.0384679,-0.0229359,-33.68,32871.6
229,3,-0.0152872,0.0336614,-0.0199604,-613.724,33257.8
229,4,-0.0287913,0.0331274,-0.0199986,-168.4,33491.4
230,0,-0.0305842,0.0232854,-0.0140858,-63.6177,33730.9
230,1,-0.0218485,0.033814,-0.0185108,561.333,34045.2
230,2,-0.0324915,0.0373617,-0.0219822,-11.2267,34398.5
230,3,-0.0228403,0.0343099,-0.0225163,-527.653,34736.8
230,4,-0.00296577,0.0323644,-0.0194645,-972.977,35087
231,0,4.78365e-05,0.0264135,-0.0150013,-104.782,35335.5
231,1,0.012293,0.0338903,-0.0173664,404.16,35646.9
231,2,0.0117208,0.0376287,-0.0229359,-41.1644,36036.1
231,3,-0.0165842,0.0351873,-0.0272846,-205.822,36401.3
231,4,0.0036718,0.0333562,-0.020113,-1369.65,36802.5
232,0,0.0230123,0.0315633,-0.0150013,-101.04,37131.8
232,1,0.00390068,0.031983,-0.0198078,310.604,37497
232,2,0.000238571,0.0359502,-0.0217915,-134.72,37892.2
232,3,-0.00540718,0.0373235,-0.031023,-48.6488,38302.4
232,4,0.01256,0.0375906,-0.018816,-815.804,38763.4
233,0,-0.00479683,0.03225,-0.0169086,-168.4,39140.6
233,1,-0.00464424,0.0323644,-0.019083,209.564,39517.8
233,2,0.00950829,0.0356451,-0.0206089,108.524,39916
233,3,0.00458733,0.0427786,-0.0273609,44.9066,40377
233,4,0.00382439,0.0366369,-0.0217533,-370.48,40850.1
234,0,-0.00037178,0.0342718,-0.0161076,-224.533,41236.2
234,1,-0.00971779,0.0316778,-0.0179768,-52.3911,41634.4
234,2,-0.0206278,0.0351873,-0.0184345,819.546,41927.8
234,3,-0.00372871,0.0399938,-0.023737,239.502,42487.6
234,4,-0.00536903,0.038735,-0.0209522,-172.142,42927.7
235,0,-0.00861153,0.033814,-0.0199986,-355.511,43293
235,1,0.00126854,0.0312582,-0.0122547,-26.1955,43673.2
235,2,-0.00536903,0.034577,-0.0156116,-187.111,43960.6
235,3,-0.00380501,0.0359121,-0.0215244,411.644,44379.7
235,4,-0.0178431,0.0383154,-0.0225544,-18.7111,44706
236,0,0.00462547,0.0350729,-0.019083,-434.097,45011.4
236,1,0.00535027,0.0314489,-0.0104237,97.2977,45283.8
236,2,-0.00887856,0.0360265,-0.0153446,164.658,45454.5
236,3,0.00813499,0.0349966,-0.0199604,512.684,45700
236,4,-0.00472054,0.0385442,-0.0230885,-37.4222,45957.4
237,0,0.0030233,0.0351873,-0.0184727,-419.128,46220.9
237,1,0.0168325,0.0306478,-0.0153446,-41.1644,46367.6
237,2,0.0298406,0.0312582,-0.0150394,-59.8755,46505.3
237,3,0.0210668,0.0335851,-0.0197315,561.333,46669.9
237,4,0.0144674,0.0383154,-0.022707,7.48444,46894.5
238,0,0.0245,0.0350347,-0.0183582,-407.902,47172.9
238,1,0.0243093,0.0327078,-0.0179386,-553.848,47310.6
238,2,0.00531212,0.0271764,-0.013628,-48.6488,47421.4
238,3,-0.000943985,0.0341192,-0.0169849,78.5866,47586
238,4,0.00744835,0.0385061,-0.0244236,-101.04,47822.6
239,0,-0.0108241,0.033814,-0.0188541,-407.902,47987.2
239,1,-0.00910744,0.0317541,-0.0193119,-1092.73,48208.8
239,2,0.00134483,0.0241247,-0.0135899,-172.142,48295.6
239,3,-0.0168131,0.034577,-0.0170231,336.8,48403.3
239,4,-0.0342081,0.0380483,-0.0226688,-59.8755,48550
240,0,-0.0171564,0.034081,-0.0228214,-175.884,48690.7
240,1,-0.0176524,0.0343099,-0.0189686,-1332.23,48843.4
240,2,-0.0108622,0.0261846,-0.0146961,-86.071,48873.4
240,3,-0.0013636,0.0330129,-0.0195026,246.986,48897.3
240,4,-0.0082682,0.0365606,-0.0222111,-127.235,48996.1
241,0,0.00149742,0.0364843,-0.0290012,-145.947,49079.9
241,1,0.013056,0.0360265,-0.0191593,-1006.66,49181.7
241,2,0.0253011,0.0312582,-0.0148869,-217.049,49184.7
241,3,0.00840202,0.032784,-0.0207996,243.244,49208.7
241,4,-0.0064753,0.0355306,-0.0214863,-303.12,49226.6
242,0,0.00329033,0.0376287,-0.0323582,11.2267,49310.5
242,1,0.0263692,0.036141,-0.0201511,-508.942,49406.3
242,2,0.024233,0.0326696,-0.0161457,-213.306,49427.2
242,3,0.021639,0.0323644,-0.0199604,71.1021,49406.3
242,4,0.0187399,0.034577,-0.0205708,434.097,49355.4
243,0,-0.00658974,0.0423589,-0.025835,97.2977,49478.1
243,1,-0.0123881,0.0365224,-0.0208759,-355.511,49526
243,2,-0.019636,0.0329366,-0.0180912,-456.551,49502.1
243,3,0.00309959,0.0322118,-0.0140858,93.5555,49484.1
243,4,-0.0137232,0.0343099,-0.0183964,1115.18,49340.4
244,0,-0.0178049,0.0391546,-0.0222874,333.057,49436.2
244,1,-0.00376686,0.0390783,-0.0209141,-235.76,49523
244,2,-0.00842079,0.0348058,-0.0156498,-258.213,49469.1
244,3,-0.0070475,0.03122,-0.0137424,-37.4222,49457.2
244,4,0.00493065,0.034844,-0.0161457,568.817,49403.3
245,0,-0.00689491,0.035111,-0.0254917,677.341,49415.2
245,1,-0.0185297,0.0391546,-0.022707,-127.235,49445.2
245,2,-0.0013636,0.0348058,-0.0160313,-419.128,49460.1
245,3,0.00535027,0.0310293,-0.011301,7.48444,49433.2
245,4,-0.00262245,0.0341955,-0.0152302,74.8444,49412.2
246,0,0.00264183,0.0341955,-0.0199223,493.973,49391.3
246,1,-0.0020121,0.038735,-0.0259495,56.1333,49430.2
246,2,0.00531212,0.034844,-0.0175571,-505.199,49499.1
246,3,-0.00815376,0.031983,-0.0168705,-89.8132,49472.1
246,4,-0.0102518,0.0280538,-0.0177097,-119.751,49415.2
247,0,-0.0219248,0.0345007,-0.0193882,602.497,49418.2
247,1,-0.0429057,0.0381628,-0.0220966,0,49448.2
247,2,-0.0255869,0.0337759,-0.0194263,-475.262,49541
247,3,-0.0151728,0.0337377,-0.0159168,-422.871,49490.1
247,4,-0.0244807,0.0232473,-0.0129414,-97.2977,49430.2
248,0,-0.0277232,0.0328985,-0.0186253,467.777,49382.3
248,1,-0.00823006,0.0375524,-0.0150013,-74.8444,49433.2
248,2,-0.010023,0.0350347,-0.0260639,-385.448,49445.2
248,3,-0.00781044,0.0343099,-0.0202656,-1092.73,49463.1
248,4,-0.00269875,0.0303808,-0.0174809,-11.2267,49397.3
249,0,0.0145055,0.0331274,-0.017252,415.386,49352.4
249,1,0.0146963,0.0367132,-0.0204182,-89.8132,49364.3
249,2,0.00111595,0.037438,-0.0302982,-101.04,49379.3
249,3,0.0155737,0.0355306,-0.0199604,-1395.85,49436.2
249,4,0.0116064,0.0316015,-0.017519,-130.978,49385.3
250,0,0.00897423,0.0322118,-0.0161839,232.018,49349.4
250,1,0.00691429,0.0361791,-0.0196552,-3.74222,49385.3
250,2,0.00668541,0.0408331,-0.0304508,-153.431,49406.3
250,3,0.0178243,0.0379339,-0.0245762,-853.226,49475.1
250,4,0.0330068,0.0335851,-0.0162983,-190.853,49433.2
251,0,0.0322057,0.031487,-0.0219059,239.502,49406.3
251,1,0.0182439,0.0349966,-0.0182819,26.1955,49400.3
251,2,0.0254919,0.0403371,-0.0220585,194.595,49490.1
251,3,0.0274755,0.0390401,-0.0207233,-557.59,49511
251,4,0.0330068,0.0332037,-0.0139713,-190.853,49469.1
252,0,0.0245382,0.0315252,-0.0122547,220.791,49454.2
252,1,0.0181295,0.0350729,-0.0140095,467.777,49382.3
252,2,0.00458733,0.0343862,-0.0225544,194.595,49451.2
252,3,-0.0220774,0.0390401,-0.0212193,-441.582,49505.1
252,4,-0.00636085,0.0342718,-0.0189686,-157.173,49466.1
253,0,0.00901238,0.0309148,-0.0106907,37.4222,49436.2
253,1,-0.0129603,0.0352636,-0.0166416,924.328,49319.4
253,2,-0.0169657,0.035378,-0.0198841,396.675,49442.2
253,3,-0.0187586,0.0392309,-0.0256062,89.8132,49457.2
253,4,-0.0246333,0.034844,-0.0183582,-362.995,49433.2
254,0,-0.0119303,0.0312963,-0.0162601,93.5555,49445.2
254,1,-0.0120829,0.0297323,-0.0106525,426.613,49397.3
254,2,0.00142113,0.0348058,-0.019083,546.364,49409.3
254,3,0.00611321,0.0388876,-0.0177479,-119.751,49466.1
254,4,0.0148489,0.0359121,-0.0194263,-572.559,49466.1
255,0,0.0210668,0.0334325,-0.0191593,-11.2267,49463.1
255,1,0.0142004,0.0245824,-0.0152683,-127.235,49418.2
255,2,0.00557915,0.0335088,-0.0182819,479.004,49436.2
255,3,0.00840202,0.0378194,-0.0228596,-149.689,49451.2
255,4,0.0132467,0.0334325,-0.0209904,-329.315,49553
256,0,0.0100423,0.03328,-0.0198078,-243.244,49472.1
256,1,0.0285818,0.0251165,-0.0104618,-67.3599,49424.2
256,2,0.00767723,0.0310674,-0.0191212,385.448,49412.2
256,3,-0.00548347,0.0372854,-0.0196171,-41.1644,49457.2
256,4,0.00847832,0.0335851,-0.0260258,-467.777,49493.1
257,0,0.0132085,0.0342336,-0.0200748,-1006.66,49502.1
257,1,0.0174429,0.0297704,-0.0153065,-104.782,49436.2
257,2,-0.00445351,0.0340047,-0.0256443,355.511,49406.3
257,3,0.00287071,0.0351492,-0.0213337,-108.524,49439.2
257,4,0.0102712,0.0441518,-0.030756,-239.502,49445.2
258,0,-0.00502571,0.0349966,-0.0198078,-1335.97,49493.1
258,1,0.000772629,0.0320211,-0.0188923,-179.626,49439.2
258,2,0.0018026,0.03328,-0.0195408,157.173,49406.3
258,3,-0.0170802,0.0350729,-0.0207996,-67.3599,49397.3
258,4,-0.0145625,0.0403371,-0.0316715,-325.573,49436.2
259,0,0.00206963,0.0365606,-0.0202656,-576.302,49496.1
259,1,-0.0123499,0.0299612,-0.0170612,-329.315,49436.2
259,2,-0.00514015,0.033814,-0.0187778,168.4,49418.2
259,3,-0.0116251,0.038735,-0.0199604,254.471,49370.3
259,4,-0.00838264,0.0411001,-0.0243092,116.009,49436.2
260,0,-0.0141047,0.0391546,-0.0201511,-703.537,49490.1
260,1,-0.0132273,0.0335088,-0.0195408,-340.542,49445.2
260,2,0.00466362,0.0311437,-0.0148869,-56.1333,49436.2
260,3,-0.00887856,0.035378,-0.0126743,699.795,49280.5
260,4,-0.0114344,0.0361028,-0.0216389,325.573,49421.2
261,0,0.00657097,0.0375524,-0.0228596,-273.182,49472.1
261,1,0.0202276,0.0346532,-0.0200367,-370.48,49448.2
261,2,0.0134756,0.03122,-0.011034,-56.1333,49445.2
261,3,0.0216009,0.0343481,-0.0159168,486.488,49391.3
261,4,0.0115301,0.0345388,-0.0212193,464.035,49427.2
262,0,-0.00441536,0.0398031,-0.0210285,-160.915,49460.1
262,1,0.0111486,0.0372091,-0.0180912,-464.035,49448.2
262,2,0.00226036,0.0310293,-0.0131702,-22.4533,49439.2
262,3,-0.0174998,0.0272909,-0.0142765,123.493,49424.2
262,4,-0.0416468,0.0357977,-0.0195789,419.128,49421.2
263,0,-0.0416087,0.0386205,-0.0239277,157.173,49454.2
263,1,-0.0321101,0.0357214,-0.0161457,-123.493,49553
263,2,-0.0345133,0.0320974,-0.0195026,-172.142,49481.1
263,3,-0.0236796,0.0241628,-0.0129414,-138.462,49427.2
263,4,-0.0108622,0.0402609,-0.0203037,538.879,49424.2
264,0,-0.0146387,0.0352255,-0.0230503,-41.1644,49460.1
264,1,-0.00246986,0.0300756,-0.0197315,-303.12,49535
264,2,0.0270559,0.0328603,-0.0202656,-662.373,49496.1
264,3,0.0188543,0.0248495,-0.013361,-160.915,49448.2
264,4,0.00443474,0.0333944,-0.0209522,291.893,49382.3
265,0,-0.00910744,0.0364843,-0.0224018,-14.9689,49442.2
265,1,-0.0102518,0.0338903,-0.0264454,-336.8,49439.2
265,2,-0.00662788,0.0352636,-0.0190449,-1302.29,49490.1
265,3,-0.0105952,0.0302282,-0.0153828,86.071,49448.2
265,4,-0.00563606,0.0324789,-0.0191212,333.057,49394.3
266,0,-0.024557,0.0353399,-0.0220585,-127.235,49430.2
266,1,-0.0271128,0.0363699,-0.031023,-164.658,49421.2
266,2,-0.00617012,0.0356451,-0.0170612,-1365.91,49466.1
266,3,0.000543747,0.031487,-0.0167179,-116.009,49418.2
266,4,0.0074102,0.0316778,-0.0209522,108.524,49355.4
267,0,0.0121404,0.0282446,-0.0195789,-116.009,49328.4
267,1,-0.00224098,0.0410238,-0.0292683,-101.04,49307.5
267,2,-0.00147804,0.0446859,-0.0207996,-550.106,49286.5
267,3,-0.000600662,0.0322118,-0.0170994,-190.853,49154.8
267,4,0.0179388,0.0320211,-0.0184345,187.111,49017.1
268,0,0.0215246,0.0333562,-0.0194263,228.275,48822.5
268,1,0.00111595,0.040566,-0.0218296,18.7111,48726.7
268,2,0.00393883,0.0367895,-0.0217533,-471.519,48574
268,3,0.00592247,0.03328,-0.0178242,-269.44,48334.5
268,4,0.00630394,0.0316396,-0.0141621,22.4533,48044.1
269,0,0.0137426,0.0345388,-0.0176716,755.928,47622
269,1,0.0230123,0.037972,-0.0216007,232.018,47454.3
269,2,0.0131322,0.0389257,-0.0190449,-235.76,47169.9
269,3,0.0153066,0.0349966,-0.0153446,-542.622,46765.8
269,4,0.0249197,0.0311819,-0.0116825,26.1955,46421.5
270,0,0.00809685,0.0364462,-0.0156116,711.021,46008.3
270,1,0.00733391,0.0332037,-0.0211811,389.191,45726.9
270,2,-0.00376686,0.0399175,-0.021677,-112.267,45403.6
270,3,0.00794426,0.0347295,-0.0196552,-501.457,45104.2
270,4,0.0061895,0.0317159,-0.0121021,-41.1644,44825.8
271,0,-0.0104807,0.0322881,-0.0151539,48.6488,44487.5
271,1,0.0102712,0.0342336,-0.0205708,493.973,44239
271,2,-0.00777229,0.0375906,-0.0228214,-127.235,44023.5
271,3,-0.00525459,0.0364462,-0.0182438,-475.262,43819.9
271,4,-0.000333633,0.0311437,-0.0160313,-160.915,43454.6
272,0,-0.0112055,0.028626,-0.0127125,-26.1955,43245.1
272,1,-0.0180338,0.034081,-0.0192738,452.808,42963.7
272,2,0.00012413,0.0375906,-0.0232792,52.3911,42721.2
272,3,0.000467453,0.0348058,-0.0183201,-479.004,42502.6
272,4,-0.00586494,0.0336233,-0.0198078,-591.27,42104.4
273,0,-0.00456795,0.0238577,-0.0141621,-41.1644,41673.3
273,1,0.00550285,0.0337759,-0.0187778,456.551,41248.2
273,2,0.00576988,0.0407186,-0.0217152,-134.72,40853
273,3,-0.00414833,0.0328985,-0.02038,-340.542,40410
273,4,-0.00208839,0.0342718,-0.0195789,-1298.55,39978.9
274,0,0.0123693,0.0249258,-0.0140095,-44.9066,39469.9
274,1,-0.0058268,0.0348058,-0.0169468,404.16,38981.9
274,2,0.00653282,0.0370565,-0.0231647,-153.431,38520.9
274,3,0.0080587,0.035378,-0.0265217,-224.533,38131.7
274,4,-0.0100993,0.034844,-0.0193501,-1302.29,37784.4
275,0,0.00821129,0.0307241,-0.0150013,-512.684,37344.3
275,1,0.0217535,0.0324407,-0.019083,89.8132,36931.2
275,2,-0.00590309,0.0354925,-0.0226307,-11.2267,36607.9
275,3,-0.0162791,0.0371709,-0.0313282,-130.978,36317.5
275,4,-0.00182137,0.0361028,-0.0210667,-624.95,36084
276,0,0.0023748,0.0312582,-0.0153065,-344.284,35757.6
276,1,-0.00353798,0.0323644,-0.0198841,29.9377,35482.2
276,2,-0.0111292,0.0356069,-0.0194263,344.284,35194.8
276,3,-0.00716194,0.0388113,-0.0309086,26.1955,35036.1
276,4,-0.00864967,0.0371709,-0.0197315,-254.471,34907.4
277,0,-0.00796303,0.0330511,-0.0168705,-389.191,34635
277,1,-0.000219192,0.0317922,-0.0182056,74.8444,34413.4
277,2,-0.00563606,0.035111,-0.0184727,827.03,34087.1
277,3,-0.00239357,0.0385824,-0.0235844,258.213,34030.2
277,4,0.000963364,0.0388876,-0.02038,-232.018,33907.5
278,0,-0.00727638,0.0336614,-0.0184345,-359.253,33694.9
278,1,-0.0136469,0.0321737,-0.0129795,336.8,33530.3
278,2,-0.00773415,0.0346914,-0.0160313,580.044,33290.8
278,3,-0.00376686,0.0365224,-0.021143,490.231,33183
278,4,-0.0235651,0.037705,-0.0223637,-7.48444,33054.3
279,0,-0.0367258,0.0351492,-0.0181675,-407.902,32958.5
279,1,-0.0222681,0.0265279,-0.0102711,37.4222,32814.8
279,2,-0.0269984,0.0346914,-0.0131321,157.173,32653.1
279,3,-0.0307368,0.0350347,-0.0201893,482.746,32575.3
279,4,-0.0309275,0.0392309,-0.0230503,-44.9066,32548.3
280,0,-0.00628456,0.0354543,-0.0176334,-359.253,32554.3
280,1,-0.00971779,0.0312963,-0.0140095,-48.6488,32482.5
280,2,0.00203148,0.0317159,-0.0142002,22.4533,32407.6
280,3,0.0107671,0.0340429,-0.0193119,486.488,32419.6
280,4,-0.0194834,0.0386587,-0.0220966,-33.68,32497.4
281,0,-0.0168894,0.0351492,-0.0179386,-538.879,32686
281,1,-0.00983223,0.0327078,-0.0176716,-527.653,32689
281,2,0.00958458,0.025765,-0.017252,501.457,32745.9
281,3,0.00138298,0.0337759,-0.0186253,370.48,32844.7
281,4,-0.0145625,0.037438,-0.0230122,-119.751,33027.3
282,0,-0.000600662,0.0344625,-0.0179005,-340.542,33221.9
282,1,0.00149742,0.0323263,-0.0213718,-950.523,33377.6
282,2,0.0150777,0.0249639,-0.0128651,-160.915,33503.3
282,3,0.012026,0.0348821,-0.0184345,407.902,33635.1
282,4,-0.00338539,0.0385442,-0.0228214,-130.978,33835.6
283,0,-0.0110911,0.0367132,-0.021944,-310.604,34015.3
283,1,0.00370995,0.0338522,-0.0193501,-1380.88,34203.9
283,2,-0.00285133,0.0280538,-0.015192,-63.6177,34302.7
283,3,-0.0200175,0.0343099,-0.0198078,273.182,34410.4
283,4,-0.0163172,0.0371328,-0.0195789,-3.74222,34581.1
284,0,-0.0045298,0.0345007,-0.0296879,-187.111,34697.8
284,1,0.0155355,0.0354162,-0.0198078,-1044.08,34907.4
284,2,0.0163747,0.0304189,-0.0153828,-205.822,34985.2
284,3,0.0283529,0.0328222,-0.0192356,-400.417,35075.1
284,4,0.0196554,0.0351492,-0.0207996,-344.284,35206.8
285,0,-0.0051783,0.0417104,-0.0307178,-48.6488,35374.4
285,1,-0.00102028,0.0369039,-0.0198841,-501.457,35572
285,2,0.020075,0.0325933,-0.0164509,-239.502,35670.8
285,3,0.0254156,0.0330129,-0.0206852,160.915,35805.5
285,4,0.0284673,0.0320211,-0.0185108,370.48,35880.4
286,0,0.0339605,0.0415197,-0.0249577,224.533,36140.8
286,1,0.0132085,0.0375143,-0.0199223,-318.089,36356.4
286,2,0.0136663,0.0330892,-0.0173664,-445.324,36443.2
286,3,0.0176717,0.0322118,-0.0172138,78.5866,36604.9
286,4,0.0160696,0.0337759,-0.018549,782.124,36601.9
287,0,0.00397697,0.0394979,-0.0222492,329.315,36871.3
287,1,0.00203148,0.0380102,-0.0211811,-288.151,36985.1
287,2,0.0151922,0.0343481,-0.0183964,-381.706,37077.9
287,3,-0.0070475,0.030686,-0.0122166,-18.7111,37143.8
287,4,-0.00643715,0.0347677,-0.0173283,598.755,37146.8
288,0,0.0132848,0.035111,-0.0206852,404.16,37221.6
288,1,-0.0155543,0.0399175,-0.0222492,-22.4533,37287.5
288,2,-0.0286005,0.0334707,-0.0197697,-531.395,37311.4
288,3,0.00168816,0.0318304,-0.00969887,48.6488,37320.4
288,4,-0.00998482,0.0347677,-0.0115299,74.8444,37266.5
289,0,-0.0230692,0.0347295,-0.0207233,666.115,37308.4
289,1,-0.0401209,0.0387731,-0.0223255,-228.275,37326.4
289,2,-0.0287913,0.0351873,-0.0180531,-374.222,37398.2
289,3,-0.0127314,0.0314108,-0.0151157,-18.7111,37386.3
289,4,-0.0215052,0.0315252,-0.013628,-44.9066,37344.3
290,0,-0.0130747,0.0340429,-0.020113,583.786,37329.4
290,1,-0.0135706,0.0393453,-0.0228977,22.4533,37434.2
290,2,-0.0168894,0.0349203,-0.0191975,-291.893,37535.9
290,3,-0.0188731,0.0323644,-0.0193119,-557.59,37494
290,4,-0.0121592,0.0254598,-0.0140095,26.1955,37467.1
291,0,-0.0181101,0.0332418,-0.0185108,362.995,37434.2
291,1,0.000658188,0.0378576,-0.0232792,-29.9377,37494
291,2,0.0121404,0.0343481,-0.0193119,-374.222,37506
291,3,0.00943199,0.0330129,-0.0193882,-1264.87,37535.9
291,4,0.0225164,0.023171,-0.0131321,-116.009,37449.1
292,0,0.0231649,0.0339285,-0.0187778,370.48,37398.2
292,1,0.032015,0.0371709,-0.0226307,7.48444,37422.2
292,2,0.0153066,0.0346151,-0.0246525,-172.142,37395.2
292,3,0.00844017,0.0337759,-0.0202274,-1395.85,37398.2
292,4,0.0233556,0.0282827,-0.0142765,-209.564,37311.4
293,0,0.00332848,0.0331274,-0.0201893,288.151,37215.6
293,1,-0.00288948,0.0367513,-0.0214863,-138.462,37125.8
293,2,0.00729576,0.0362936,-0.0289631,44.9066,37140.8
293,3,0.00710503,0.0359884,-0.0191212,-759.67,37116.8
293,4,0.0119115,0.0304952,-0.0155735,-63.6177,37003.1
294,0,0.0431158,0.0332418,-0.0195026,63.6177,36886.3
294,1,0.0349523,0.0353017,-0.0214481,284.409,36769.5
294,2,0.0174429,0.0399175,-0.0310612,3.74222,36712.7
294,3,0.0244619,0.0348821,-0.0196552,-538.879,36640.8
294,4,0.0158025,0.0325933,-0.018816,-280.666,36452.2
295,0,0.0205709,0.0317922,-0.0191593,18.7111,36269.6
295,1,0.00130669,0.0345388,-0.0194263,654.888,35961.2
295,2,-0.00586494,0.0417867,-0.0275135,284.409,35925.3
295,3,-0.00342354,0.0383535,-0.0182819,-284.409,35754.6
295,4,-0.00723824,0.0357595,-0.016489,-422.871,35500.2
296,0,0.00824944,0.0322118,-0.0187397,-33.68,35275.6
296,1,0.00191704,0.0363699,-0.0184727,789.608,34943.3
296,2,-0.0149821,0.0409475,-0.0238514,127.235,34811.6
296,3,-0.0150584,0.0382391,-0.0204563,-250.729,34611
296,4,0.0102712,0.0338522,-0.0175953,-445.324,34365.5
297,0,0.000963364,0.031487,-0.0141621,22.4533,34153
297,1,-0.000943985,0.0346151,-0.0177479,404.16,33913.5
297,2,-0.00250801,0.0365987,-0.0206852,512.684,33739.8
297,3,0.0104238,0.0382009,-0.0221348,18.7111,33599.1
297,4,0.00962273,0.034844,-0.0173664,-392.933,33437.5
298,0,0.00176445,0.0304189,-0.0153446,86.071,33272.8
298,1,0.00847832,0.0348058,-0.0160313,-3.74222,33099.2
298,2,-0.00864967,0.0346914,-0.0214481,542.622,32973.4
298,3,-0.0207804,0.0390401,-0.0229359,-59.8755,32868.6
298,4,-0.00609383,0.0335851,-0.0207615,-422.871,32841.7
299,0,-0.00666603,0.0287786,-0.0120258,-134.72,32674.1
299,1,-0.0150202,0.0341573,-0.0154209,-63.6177,32503.4
299,2,-0.0038813,0.0344244,-0.0210667,426.613,32371.7
299,3,-0.008993,0.0393072,-0.0221729,-11.2267,32320.8
299,4,-0.00784859,0.0354162,-0.018816,-359.253,32260.9
300,0,0.00123039,0.0310674,-0.0150394,-699.795,32093.3
300,1,0.013056,0.0316015,-0.0148106,-67.3599,31928.6
300,2,0.0204946,0.0346914,-0.0203037,348.026,31713.1
300,3,-0.0112818,0.0394216,-0.0217915,-63.6177,31629.2
300,4,0.00313774,0.0346151,-0.0190449,-276.924,31422.7
301,0,-0.00441536,0.0316396,-0.0184345,-1268.61,31305.9
301,1,-0.00926002,0.0274816,-0.017519,-164.658,31033.5
301,2,0.0128652,0.03328,-0.0195789,299.377,30811.9
301,3,0.00660912,0.0373235,-0.023737,-138.462,30644.3
301,4,-0.000524368,0.0357214,-0.018816,-119.751,30458.7
302,0,0.011759,0.0324407,-0.018816,-1212.48,30282
302,1,0.0127889,0.0236669,-0.0128269,-134.72,30015.6
302,2,-0.0167368,0.0336996,-0.018816,299.377,29749.1
302,3,-0.0231455,0.0378194,-0.0217533,-172.142,29560.5
302,4,-0.0196741,0.033547,-0.0202656,104.782,29371.9
303,0,-0.00185951,0.0341573,-0.0197315,-827.03,29219.2
303,1,0.0107671,0.0245443,-0.0140476,-127.235,28982.7
303,2,0.0134374,0.0333562,-0.0195026,138.462,28755.2
303,3,0.0103094,0.0359884,-0.022974,224.533,28539.7
303,4,0.00123039,0.0333944,-0.0251865,-18.7111,28437.9
304,0,0.0100042,0.0348058,-0.0194645,-344.284,28336.1
304,1,0.0323965,0.0263372,-0.0153828,-284.409,28159.4
304,2,0.0131322,0.034081,-0.0236607,44.9066,27994.8
304,3,-0.00525459,0.0365606,-0.0218296,531.395,27800.2
304,4,0.0132085,0.0357214,-0.0294971,213.306,27797.2
305,0,0.0197698,0.0364462,-0.0189686,-430.355,27743.3
305,1,0.0336172,0.0301138,-0.0165653,-239.502,27620.6
305,2,0.0235464,0.0318304,-0.0195789,-33.68,27524.8
305,3,0.0186254,0.0360647,-0.0200748,800.835,27303.2
305,4,0.0186636,0.0389639,-0.0311756,359.253,27351.1
306,0,0.00889793,0.0359121,-0.020113,-351.768,27267.3
306,1,0.00439659,0.0333562,-0.0149632,-344.284,27180.5
306,2,0.0017263,0.0321355,-0.0211811,-37.4222,27084.7
306,3,-0.0157069,0.0358739,-0.0185871,808.319,26878.1
306,4,-0.00807747,0.0407949,-0.0294971,460.293,26821.2
307,0,-0.008993,0.0371328,-0.0191212,-93.5555,26743.4
307,1,-0.027151,0.0325933,-0.0168705,-505.199,26593.7
307,2,-0.0119685,0.0336614,-0.0177097,89.8132,26447
307,3,-0.00784859,0.0339285,-0.0197315,-7.48444,26243.4
307,4,-0.0299357,0.0420919,-0.0226688,486.488,26105.7
308,0,-0.0336741,0.0376287,-0.0212574,-26.1955,25991.9
308,1,-0.0275324,0.0341955,-0.017786,-400.417,25857.2
308,2,-0.0134562,0.0314108,-0.0135899,-44.9066,25686.6
308,3,-0.0192927,0.0355688,-0.0162983,-11.2267,25483
308,4,-0.0140665,0.0360647,-0.0209522,437.84,25336.3
309,0,-0.000829544,0.0399557,-0.0217533,-11.2267,25201.6
309,1,-0.00220283,0.0349966,-0.0184345,-471.519,25156.7
309,2,-0.00182137,0.0315252,-0.0103092,-157.173,24977.1
309,3,0.00462547,0.0350347,-0.0170612,-3.74222,24767.5
309,4,-0.0109385,0.0345388,-0.0206852,329.315,24629.8
310,0,-0.0218867,0.038735,-0.0217533,-18.7111,24486.1
310,1,-0.00407204,0.0355306,-0.0184345,-479.004,24429.2
310,2,-0.0104044,0.0322881,-0.0122929,-419.128,24201.7
310,3,-0.0213145,0.0315633,-0.0143147,-86.071,23968.2
310,4,-0.0107478,0.0338903,-0.0201893,430.355,23758.6
311,0,-0.0121973,0.0371328,-0.0224781,11.2267,23605.9
311,1,0.00699059,0.0346151,-0.0199986,-276.924,23441.3
311,2,0.0113775,0.0315252,-0.0163364,-797.092,23261.6
311,3,0.0188161,0.0266042,-0.0137424,-160.915,23010.2
311,4,0.0179388,0.033814,-0.0182819,407.902,22791.6
312,0,9.68948e-06,0.0381628,-0.0228977,-127.235,22638.9
312,1,0.0143148,0.0341573,-0.017786,-269.44,22462.3
312,2,0.0194265,0.0328603,-0.0193501,-1347.2,22369.5
312,3,0.00622765,0.0246969,-0.0144672,-56.1333,22147.9
312,4,0.0175954,0.034577,-0.0184727,258.213,21950.4
313,0,0.023203,0.0380865,-0.0227833,-205.822,21875.5
313,1,0.00519768,0.0353399,-0.0169849,-119.751,21761.7
313,2,0.0113393,0.0322118,-0.0207233,-1317.26,21734.8
313,3,0.0223638,0.0250784,-0.0143909,-74.8444,21567.2
313,4,0.0282003,0.0333944,-0.0191593,179.626,21459.4
314,0,0.0168707,0.0361791,-0.0211811,-104.782,21384.5
314,1,0.0131322,0.0341573,-0.0250721,-228.275,21369.6
314,2,0.0286962,0.0341955,-0.0186253,-886.906,21318.7
314,3,0.0154211,0.0291219,-0.0151157,-134.72,21189.9
314,4,-0.0107096,0.0327459,-0.021143,14.9689,21097.1
315,0,-0.011587,0.0372091,-0.0213337,116.009,21007.3
315,1,-0.0247477,0.0358739,-0.0289631,-74.8444,20977.4
315,2,-0.0239085,0.0359121,-0.0187778,-310.604,20950.4
315,3,-0.0143336,0.0314489,-0.0161839,-224.533,20806.7
315,4,-0.0303172,0.0331655,-0.0187397,74.8444,20699
316,0,-0.0399302,0.0361028,-0.0213337,501.457,20504.4
316,1,-0.0293253,0.0380483,-0.0292683,340.542,20501.4
316,2,-0.0236796,0.0370565,-0.0198078,-381.706,20417.5
316,3,-0.00838264,0.0320211,-0.0161457,-273.182,20285.8
316,4,-0.0192927,0.0318304,-0.0204563,-33.68,20118.2
317,0,-0.0259684,0.0351873,-0.0228214,879.421,19851.7
317,1,-0.0197886,0.0425115,-0.0297642,232.018,19872.7
317,2,-0.0192545,0.037705,-0.0196934,-213.306,19764.9
317,3,-0.0143717,0.0325552,-0.0169468,-449.066,19585.3
317,4,-0.00666603,0.0324789,-0.0178242,-7.48444,19465.5
318,0,-0.0315379,0.0348821,-0.0187016,542.622,19223
318,1,-0.0294779,0.0413671,-0.0247669,434.097,19106.3
318,2,-0.0172327,0.0367513,-0.0211048,-194.595,19010.5
318,3,-0.0331019,0.0335851,-0.0167179,-449.066,18821.9
318,4,-0.0239085,0.0315252,-0.015955,-11.2267,18642.2
319,0,-0.0133418,0.0348821,-0.0170231,74.8444,18429.7
319,1,-0.00414833,0.0374761,-0.0226307,497.715,18268
319,2,0.0023748,0.0390401,-0.02244,-299.377,18139.3
319,3,0.0129797,0.0343099,-0.018549,-400.417,18019.5
319,4,0.0248815,0.0317922,-0.0119877,157.173,17842.9
320,0,0.0125219,0.0354925,-0.0164509,-41.1644,17621.4
320,1,0.0162222,0.0355688,-0.0211048,527.653,17477.7
320,2,0.0170232,0.0390783,-0.0219822,-145.947,17378.9
320,3,0.0106527,0.0356832,-0.0185871,-411.644,17363.9
320,4,0.00832573,0.0311056,-0.010767,-377.964,17166.3
321,0,0.0217535,0.0345007,-0.0156116,523.911,17010.6
321,1,0.000810776,0.0341192,-0.0204563,419.128,16875.9
321,2,-0.0242136,0.0393453,-0.0220966,63.6177,16837
321,3,-0.0137232,0.0356832,-0.0181293,-565.075,16774.1
321,4,-0.000600662,0.0314489,-0.0140095,-834.515,16699.3
322,0,0.0061895,0.0319067,-0.0151157,-101.04,16546.6
322,1,-0.00372871,0.0331274,-0.0195789,258.213,16438.8
322,2,0.00103966,0.039002,-0.0216007,-74.8444,16387.9
322,3,0.00500694,0.0354162,-0.0193501,-602.497,16298.1
322,4,0.00615135,0.0330511,-0.0183201,-1343.46,16226.3
323,0,0.0137426,0.0262228,-0.0150013,-209.564,16073.6
323,1,0.00523582,0.0330511,-0.0193501,284.409,15938.9
323,2,-0.00803932,0.0386587,-0.0241947,-183.369,15846
323,3,0.0011541,0.0342718,-0.017786,-157.173,15726.3
323,4,0.000696335,0.0320211,-0.0195408,-1324.75,15663.4
324,0,-0.0137614,0.0255361,-0.0139713,-26.1955,15489.8
324,1,-0.0153254,0.0342718,-0.0194263,168.4,15310.2
324,2,-0.0275324,0.0379339,-0.0220966,-74.8444,15196.4
324,3,-0.0237559,0.0338903,-0.0196552,-153.431,15076.6
324,4,-0.0249003,0.0327459,-0.0184727,-725.99,15013.8
325,0,-0.00521645,0.0238958,-0.0135517,-310.604,14798.2
325,1,0.0136282,0.0341955,-0.0184345,44.9066,14627.6
325,2,0.00512138,0.0377813,-0.02244,265.697,14459.9
325,3,0.0143148,0.033814,-0.021677,-3.74222,14364.1
325,4,0.0283529,0.0347677,-0.0130558,-168.4,14256.4
326,0,0.0204946,0.0246587,-0.0152302,-595.013,14037.8
326,1,-0.00590309,0.0330129,-0.0182438,-82.3288,13864.2
326,2,-0.00193581,0.0370565,-0.0218678,550.106,13606.7
326,3,-0.00964149,0.0340047,-0.0249577,325.573,13534.9
326,4,-0.00426277,0.0344244,-0.0192738,-411.644,13412.1
327,0,0.0114156,0.0290456,-0.0145817,-246.986,13202.5
327,1,0.00111595,0.0325552,-0.018816,44.9066,13013.9
327,2,-0.00361427,0.0353017,-0.0220966,666.115,12714.6
327,3,-0.0151347,0.035378,-0.0297642,228.275,12702.6
327,4,-0.00407204,0.0358358,-0.0217915,-194.595,12615.8
328,0,-0.00514015,0.0314489,-0.0153065,-475.262,12460.1
328,1,-0.0316904,0.0323644,-0.0201511,-14.9689,12310.4
328,2,-0.0182627,0.0359884,-0.0212574,763.412,12130.8
328,3,-0.00662788,0.0392309,-0.03232,422.871,12124.8
328,4,0.00592247,0.036408,-0.02038,-172.142,12061.9
329,0,0.0280096,0.0301519,-0.0166035,-348.026,11990.1
329,1,0.0428106,0.031983,-0.0206852,-130.978,11918.2
329,2,0.026827,0.0355688,-0.0201511,340.542,11840.4
329,3,0.0183584,0.0414816,-0.0280857,228.275,11771.5
329,4,0.00779167,0.037972,-0.0190449,-11.2267,11735.6
330,0,0.0154211,0.0330129,-0.0175571,-422.871,11678.7
330,1,0.0219823,0.0328603,-0.0204945,56.1333,11550
330,2,0.0119497,0.0362173,-0.018549,123.493,11448.2
330,3,0.00729576,0.0408331,-0.0234318,370.48,11325.4
330,4,-0.00441536,0.0361791,-0.0218296,7.48444,11268.6
331,0,-0.00376686,0.033814,-0.0193119,-422.871,11184.7
331,1,0.0101568,0.0316778,-0.0142384,-67.3599,11026.1
331,2,-0.00117287,0.0354925,-0.0176716,-116.009,10825.5
331,3,-0.0122355,0.0341955,-0.0218296,134.72,10666.8
331,4,-0.00788673,0.040032,-0.0219059,71.1021,10571
332,0,-0.00578865,0.0349203,-0.0183582,-340.542,10514.1
332,1,-0.00651344,0.0349203,-0.011301,-688.568,10340.5
332,2,0.00512138,0.0354543,-0.0154972,41.1644,10136.9
332,3,0.00809685,0.0345007,-0.0212955,400.417,9990.23
332,4,0.0113393,0.0393835,-0.0220203,37.4222,9921.37
333,0,0.00607506,0.0347295,-0.017786,-276.924,9867.48
333,1,0.0241567,0.0325933,-0.0109196,-950.523,9795.63
333,2,0.0135519,0.0345388,-0.0145817,-71.1021,9654.92
333,3,-0.0120066,0.0342336,-0.0202656,430.355,9559.12
333,4,-0.0095652,0.0393072,-0.02244,-7.48444,9562.12
334,0,0.000314865,0.0347677,-0.0179768,-217.049,9550.14
334,1,-0.00800117,0.0317922,-0.0142384,-1201.25,9544.15
334,2,-0.0220774,0.030953,-0.0139332,-123.493,9484.28
334,3,-0.019903,0.031983,-0.0187397,213.306,9475.3
334,4,-0.0424479,0.0381246,-0.0225925,-127.235,9457.33
335,0,-0.0244044,0.0352636,-0.0185871,-202.08,9430.39
335,1,-0.0153635,0.0319448,-0.0192738,-1335.97,9472.3
335,2,-0.00823006,0.0306478,-0.0145054,-145.947,9394.46
335,3,-0.00918373,0.0338903,-0.0183582,157.173,9352.55
335,4,-0.0284098,0.0381628,-0.0236225,-11.2267,9358.54
336,0,-0.014448,0.032784,-0.0199223,-381.706,9355.54
336,1,-0.0171183,0.0330129,-0.0190067,-1107.7,9367.52
336,2,-0.0182627,0.0232473,-0.0143528,-254.471,9301.66
336,3,-0.0171564,0.0385061,-0.0170994,160.915,9211.84
336,4,-0.0246714,0.0372091,-0.0228977,-71.1021,9181.91
337,0,-0.0325678,0.034577,-0.0217152,-217.049,9175.92
337,1,-0.0103281,0.0336614,-0.0196552,-673.599,9214.84
337,2,-0.00529274,0.0261083,-0.0136662,-194.595,9148.97
337,3,-0.015211,0.0341955,-0.0189304,198.338,9095.09
337,4,-0.013151,0.0373998,-0.0210667,149.689,9047.19
338,0,-0.00567421,0.0343481,-0.0254536,33.68,9080.12
338,1,-0.00411018,0.034577,-0.0191975,-261.955,9128.02
338,2,-0.0191019,0.0285879,-0.014658,-213.306,9059.16
338,3,-0.0179575,0.0294271,-0.0184345,26.1955,9023.24
338,4,-0.0147913,0.0359502,-0.0218678,699.795,8900.49
339,0,-0.0131129,0.032784,-0.028429,153.431,8993.3
339,1,0.00309959,0.0346532,-0.0207233,-224.533,8984.32
339,2,0.0122549,0.0332418,-0.0124073,-336.8,8951.39
339,3,0.0105001,0.0325933,-0.0203419,-3.74222,8912.47
339,4,0.0169851,0.0362173,-0.0204945,879.421,8756.79
340,0,0.0298788,0.0388876,-0.031786,288.151,8843.61
340,1,0.0276662,0.0353017,-0.0203419,-157.173,8855.58
340,2,0.0243856,0.0321355,-0.016222,-348.026,8771.76
340,3,0.0251485,0.0319067,-0.0206089,-7.48444,8723.86
340,4,0.0186254,0.035378,-0.0216007,763.412,8628.06
341,0,0.00561729,0.0412145,-0.0298786,531.395,8610.1
341,1,0.0188161,0.0372854,-0.0195408,-288.151,8622.07
341,2,0.0371267,0.0327078,-0.0150013,-471.519,8571.18
341,3,0.0260259,0.0330129,-0.0184345,-41.1644,8553.21
341,4,0.00363365,0.0361028,-0.0201893,202.08,8487.35
342,0,0.00920311,0.0419393,-0.0243473,467.777,8481.36
342,1,0.0253774,0.0384298,-0.0198841,29.9377,8523.28
342,2,0.0198461,0.0349203,-0.0173283,-460.293,8613.09
342,3,0.0248815,0.0308385,-0.0165653,108.524,8535.25
342,4,0.0148489,0.0346914,-0.0175571,18.7111,8466.39
343,0,-0.00151619,0.0388113,-0.021944,426.613,8517.29
343,1,0.00126854,0.0382772,-0.0220966,119.751,8580.16
343,2,0.0156118,0.034577,-0.0180149,-677.341,8666.98
343,3,0.0234701,0.0310293,-0.0126362,-175.884,8655
343,4,0.000772629,0.0354925,-0.0176334,-232.018,8628.06
344,0,0.00893608,0.0354162,-0.0220203,426.613,8622.07
344,1,0.00798241,0.0391546,-0.0226307,-67.3599,8669.97
344,2,0.00802055,0.0337759,-0.0186253,-355.511,8780.74
344,3,0.0216009,0.0313726,-0.00981331,-505.199,8693.92
344,4,0.0228216,0.0352636,-0.0153828,18.7111,8643.03
345,0,0.0101186,0.0356451,-0.0209904,392.933,8565.19
345,1,0.00733391,0.0386968,-0.0212574,-26.1955,8553.21
345,2,0.0365163,0.0353399,-0.0180531,-276.924,8514.29
345,3,0.0199987,0.0313726,-0.013628,-1081.5,8448.43
345,4,0.00199333,0.0327078,-0.0143909,-130.978,8331.67
346,0,-0.0109766,0.034844,-0.0196934,370.48,8184.98
346,1,-0.0129984,0.0389257,-0.0238514,-116.009,8134.08
346,2,-0.0137995,0.0356451,-0.0179005,-213.306,8017.33
346,3,-0.0127314,0.031487,-0.0175953,-1313.52,7957.45
346,4,-0.0145625,0.0278631,-0.0141621,-119.751,7768.84
347,0,-0.0409983,0.0333562,-0.0191212,284.409,7610.17
347,1,-0.045843,0.038735,-0.0253391,-56.1333,7535.33
347,2,-0.0253962,0.0345388,-0.0187016,-104.782,7424.56
347,3,-0.0200175,0.0330892,-0.0182819,-1137.63,7367.68
347,4,-0.0170802,0.022904,-0.0197697,-145.947,7229.97
348,0,-0.0032328,0.0349966,-0.0188541,142.204,7095.25
348,1,-0.0190638,0.035378,-0.0234318,33.68,7026.39
348,2,-0.00472054,0.0350347,-0.0203419,-134.72,6972.5
348,3,0.00535027,0.0335088,-0.0196171,-632.435,6963.52
348,4,0.016184,0.0241247,-0.0142384,-175.884,6849.76
349,0,0.0160696,0.0340429,-0.0190449,273.182,6774.91
349,1,-0.00597939,0.0394598,-0.0218296,-164.658,6715.04
349,2,0.00187889,0.034577,-0.0265217,108.524,6753.96
349,3,0.0107671,0.0344244,-0.0210667,-583.786,6765.93
349,4,0.00706688,0.0306097,-0.0144291,-366.737,6712.04
350,0,0.0148107,0.0330129,-0.0205326,108.524,6667.14
350,1,0.0252248,0.0369802,-0.0201511,452.808,6598.28
350,2,0.0080587,0.0366369,-0.029192,273.182,6688.09
350,3,0.017748,0.0362554,-0.0203037,-426.613,6744.97
350,4,0.0218679,0.032517,-0.0164127,-284.409,6721.02
351,0,0.00687614,0.0316396,-0.016489,29.9377,6709.05
351,1,-0.000181045,0.0359502,-0.0199604,718.506,6592.29
351,2,-0.0106333,0.0404516,-0.0285053,295.635,6768.92
351,3,-0.00605568,0.037705,-0.0199223,-116.009,6864.72
351,4,-0.0250147,0.0329366,-0.016222,-449.066,6873.71
352,0,-0.0231455,0.0320593,-0.0182438,-82.3288,6921.61
352,1,-0.00472054,0.0349584,-0.0175953,748.444,6909.63
352,2,-0.0155161,0.0420919,-0.024004,696.053,7044.35
352,3,-0.00857338,0.0382009,-0.0218296,-127.235,7143.15
352,4,0.00882164,0.0334325,-0.0174809,-426.613,7209.01
353,0,0.0249197,0.0314108,-0.0142765,-14.9689,7274.87
353,1,0.0188161,0.0354162,-0.0180149,314.346,7319.78
353,2,0.024233,0.037438,-0.0218678,531.395,7412.59
353,3,0.0102712,0.0380102,-0.0207233,-437.84,7529.34
353,4,0.00771538,0.0341573,-0.0182056,-437.84,7610.17
354,0,0.0114156,0.03225,-0.0120258,-116.009,7688.01
354,1,0.0183202,0.0363699,-0.0167179,299.377,7717.95
354,2,0.0195028,0.0356069,-0.0204182,482.746,7762.86
354,3,-0.00525459,0.0381246,-0.0224781,-3.74222,7879.61
354,4,0.000772629,0.0351492,-0.0183964,-422.871,7981.4
355,0,-0.00372871,0.0302282,-0.0109959,-86.071,8017.33
355,1,-0.0456141,0.0342718,-0.0155354,-198.338,7996.37
355,2,-0.0356577,0.0317922,-0.0207233,467.777,8047.27
355,3,-0.0325678,0.0393453,-0.021944,-89.8132,8131.09
355,4,-0.0357722,0.0343481,-0.0187016,-434.097,8304.73
356,0,-0.0158213,0.0318685,-0.015192,-351.768,8292.75
356,1,-0.00632271,0.0297704,-0.0156498,-179.626,8310.72
356,2,-0.0109385,0.033547,-0.0186634,490.231,8370.59
356,3,-0.0112437,0.0382772,-0.0233936,-29.9377,8505.31
356,4,0.00401512,0.0357214,-0.0176334,-295.635,8637.04
357,0,0.0169469,0.0324026,-0.0198078,-913.101,8759.78
357,1,0.0139333,0.0248113,-0.0135517,18.7111,8873.55
357,2,0.0167944,0.0348821,-0.0189304,291.893,8951.39
357,3,0.0210668,0.0373235,-0.0223255,-101.04,9157.96
357,4,-0.00334724,0.0349584,-0.0197697,-273.182,9328.6
358,0,-0.00567421,0.0336996,-0.0209522,-1268.61,9583.07
358,1,0.00973717,0.0243917,-0.0144672,-205.822,9717.79
358,2,0.00786797,0.0339285,-0.018816,621.208,9885.44
358,3,-0.000219192,0.0357595,-0.0229359,-183.369,10116
358,4,0.019808,0.0342718,-0.0244236,-67.3599,10349.5
359,0,0.0144292,0.0335851,-0.0193501,-1115.18,10615.9
359,1,0.0113012,0.0295416,-0.0145817,-142.204,10795.6
359,2,0.0100423,0.032517,-0.0198841,224.533,10954.2
359,3,-0.0025843,0.0369421,-0.0214863,-82.3288,11181.7
359,4,-0.000715103,0.0363699,-0.0306416,67.3599,11403.3
360,0,-0.00967964,0.0348821,-0.0188923,-561.333,11675.7
360,1,-0.000791397,0.0320211,-0.0158787,-306.862,11795.5
360,2,0.00306145,0.0314489,-0.0199604,41.1644,11939.2
360,3,-0.00239357,0.0350347,-0.0212193,493.973,12014
360,4,0.00416771,0.0409093,-0.0301075,33.68,12250.5
361,0,0.0165273,0.0373235,-0.0200367,-261.955,12412.2
361,1,-0.000829544,0.0321355,-0.0169086,-407.902,12454.1
361,2,0.0103094,0.0330892,-0.0187016,41.1644,12508
361,3,0.0135137,0.0336614,-0.0196171,860.71,12418.2
361,4,-0.00952705,0.0424352,-0.0228596,209.564,12585.8
362,0,0.006838,0.0375524,-0.02038,3.74222,12633.7
362,1,0.00565544,0.0331655,-0.0180912,-366.737,12591.8
362,2,0.0114156,0.0323263,-0.0158787,67.3599,12520
362,3,-0.0121592,0.0349584,-0.0170994,797.092,12433.1
362,4,-0.0197886,0.0380102,-0.0224018,430.355,12454.1
363,0,-0.00205025,0.0382391,-0.0220966,-127.235,12373.3
363,1,-0.00975594,0.0357977,-0.0187016,-389.191,12334.4
363,2,-0.00357613,0.0316015,-0.0112247,138.462,12277.5
363,3,0.00165001,0.0336996,-0.0172901,291.893,12166.7
363,4,-0.00132545,0.0357977,-0.0209141,288.151,12109.8
364,0,-0.0189875,0.038735,-0.0228214,-78.5866,12097.8
364,1,0.00954643,0.0351873,-0.0186634,-449.066,12073.9
364,2,0.0111868,0.03225,-0.0114155,33.68,12023
364,3,0.00760094,0.0327078,-0.0151539,11.2267,11957.1
364,4,0.0203802,0.0351873,-0.0199604,576.302,11945.2
365,0,0.00832573,0.0385061,-0.0231266,-104.782,11966.1
365,1,0.0105764,0.035111,-0.0174046,-490.231,12100.8
365,2,-0.00369057,0.0308767,-0.0198078,-194.595,12058.9
365,3,-0.0026606,0.0275198,-0.0136662,-89.8132,12049.9
365,4,0.00351921,0.0337759,-0.0199604,445.324,12085.9
366,0,0.000963364,0.0382772,-0.0227451,-112.267,12184.7
366,1,0.00412956,0.0349584,-0.0187397,-434.097,12319.4
366,2,0.0114919,0.03328,-0.0190449,-692.31,12388.2
366,3,0.00420586,0.0233617,-0.0137424,-104.782,12400.2
366,4,0.012026,0.0342336,-0.0187397,426.613,12466.1
367,0,0.0074102,0.0401846,-0.0221348,-104.782,12552.9
367,1,-0.0113963,0.0344244,-0.0220966,-194.595,12654.7
367,2,-0.00296577,0.0320593,-0.0199223,-1253.64,12783.4
367,3,0.00134483,0.0253072,-0.0150013,-97.2977,12789.4
367,4,-0.0108622,0.0339666,-0.0186634,172.142,12804.4
368,0,-0.0353144,0.0368276,-0.0222111,-112.267,12885.2
368,1,-0.0437449,0.034081,-0.0280857,-134.72,12927.1
368,2,-0.0221537,0.0354543,-0.0192356,-1152.6,12996
368,3,-0.019636,0.0299612,-0.02244,-213.306,12960
368,4,-0.0185679,0.0320974,-0.0185871,235.76,12915.1
369,0,0.000391159,0.0356451,-0.0212193,-130.978,12915.1
369,1,-0.00437721,0.0380483,-0.0311756,41.1644,12948.1
369,2,-0.00315651,0.0356832,-0.0199223,-669.857,13016.9
369,3,0.0115682,0.0342336,-0.017786,-209.564,12939.1
369,4,0.00275627,0.0328222,-0.0150013,63.6177,12900.2
370,0,-0.0142191,0.0349584,-0.0204563,142.204,12891.2
370,1,-0.0186823,0.042626,-0.0275517,78.5866,12996
370,2,-0.0082682,0.0367132,-0.02141,-419.128,13043.9
370,3,0.00702873,0.0337759,-0.0164127,-239.502,13043.9
370,4,0.0111486,0.0317922,-0.0190067,48.6488,13094.8
371,0,0.0144674,0.0353017,-0.0174809,782.124,13031.9
371,1,0.00138298,0.0409475,-0.0218296,172.142,13265.4
371,2,-0.0197504,0.0386968,-0.0198078,-265.697,13382.2
371,3,-0.011854,0.0331655,-0.0187778,-460.293,13448
371,4,0.00798241,0.0320974,-0.0114918,67.3599,13543.8
372,0,-0.00491127,0.0353017,-0.0179386,812.061,13552.8
372,1,-0.00643715,0.0369039,-0.0220203,344.284,13744.4
372,2,-0.00494942,0.0393072,-0.0223637,-243.244,13858.2
372,3,-0.00739082,0.036141,-0.0175571,-340.542,13906.1
372,4,0.00973717,0.0303045,-0.0124836,52.3911,14025.8
373,0,0.0102331,0.0346532,-0.0146198,321.831,14064.8
373,1,0.0167562,0.034844,-0.0204945,430.355,14157.6
373,2,0.00706688,0.0386968,-0.0217915,-82.3288,14217.4
373,3,0.0167562,0.0353017,-0.0184345,-482.746,14385.1
373,4,0.0283529,0.0323644,-0.0133228,11.2267,14430
374,0,0.00779167,0.0311056,-0.0150776,381.706,14471.9
374,1,-0.0013636,0.0349584,-0.0213718,437.84,14525.8
374,2,-0.00754341,0.0377813,-0.0258732,112.267,14636.6
374,3,-0.00437721,0.0349203,-0.0166035,-591.27,14843.1
374,4,-0.0136469,0.0318685,-0.0179005,-325.573,14870.1
375,0,-0.00666603,0.0260702,-0.0199986,-97.2977,14912
375,1,-0.0110529,0.034844,-0.0192738,531.395,14983.8
375,2,-0.0312327,0.0378194,-0.0209141,0,15139.5
375,3,-0.0205134,0.034844,-0.0212955,-314.346,15271.2
375,4,-0.008993,0.0328985,-0.0199223,-984.203,15412
376,0,0.00500694,0.0248113,-0.0143147,-48.6488,15456.9
376,1,-0.00971779,0.0339285,-0.0181675,392.933,15513.7
376,2,-0.0127695,0.0370184,-0.0225925,-101.04,15639.5
376,3,-0.026388,0.0341955,-0.0269032,-333.057,15747.3
376,4,-0.0433634,0.0350347,-0.0194263,-1380.88,15855
377,0,-0.0294398,0.0303808,-0.0164127,-194.595,15858
377,1,-0.0144862,0.0326696,-0.020113,276.924,15864
377,2,-0.0247858,0.0370565,-0.0195026,-119.751,15941.8
377,3,-0.0115107,0.0390401,-0.0339222,-112.267,15953.8
377,4,0.0067617,0.0367132,-0.0196934,-1182.54,16040.6
378,0,-0.00796303,0.0327078,-0.0167561,-108.524,15977.8
378,1,0.00321404,0.0315633,-0.0195026,123.493,15923.9
378,2,0.00191704,0.0356069,-0.019846,-14.9689,15938.9
378,3,0.00344292,0.0419775,-0.0240421,48.6488,15968.8
378,4,-0.00460609,0.0376669,-0.0207996,-531.395,16013.7
379,0,0.000810776,0.0337377,-0.0191975,-48.6488,16007.7
379,1,0.0267126,0.0314489,-0.0173283,104.782,16013.7
379,2,-0.00037178,0.0363317,-0.0174809,497.715,15986.8
379,3,-0.00666603,0.0375524,-0.0223637,258.213,16160.4
379,4,0.00264183,0.040299,-0.0206089,-711.021,16298.1
380,0,0.00950829,0.0334325,-0.018816,-291.893,16364
380,1,0.0114919,0.0311437,-0.0121021,0,16471.7
380,2,0.00576988,0.0354162,-0.0170994,740.959,16471.7
380,3,0.00168816,0.0348821,-0.0211048,404.16,16783.1
380,4,-0.0172709,0.0390783,-0.0204945,-299.377,16986.7
381,0,0.0017263,0.0348821,-0.0187778,-415.386,17136.4
381,1,0.0175573,0.0311437,-0.0104237,-41.1644,17301
381,2,0.0196554,0.0326696,-0.0144291,669.857,17432.7
381,3,0.0157262,0.0346532,-0.0199223,370.48,17645.3
381,4,0.0093557,0.0387731,-0.0235844,-205.822,17851.9
382,0,0.00996605,0.0351873,-0.0173283,-520.168,18007.6
382,1,0.00428215,0.0313726,-0.0167942,52.3911,18160.2
382,2,0.00275627,0.0275579,-0.0141621,86.071,18286
382,3,0.00309959,0.0301138,-0.0205326,482.746,18453.6
382,4,-0.0104426,0.0392309,-0.0223637,-59.8755,18633.3
383,0,-0.000524368,0.0346532,-0.0192738,-954.266,18821.9
383,1,0.0139715,0.032784,-0.0183582,-123.493,18932.6
383,2,0.0109197,0.022141,-0.0140095,18.7111,19046.4
383,3,0.0167944,0.0344625,-0.0178242,411.644,19199.1
383,4,0.0125219,0.0372091,-0.0226307,-59.8755,19423.6
384,0,0.0176717,0.034577,-0.024271,-333.057,19693
384,1,0.0129415,0.0343099,-0.0194263,-422.871,19818.8
384,2,0.0286581,0.0275579,-0.0166798,-63.6177,19965.5
384,3,0.0389196,0.0320211,-0.0179386,493.973,20163.1
384,4,0.0240423,0.0361028,-0.0219822,-104.782,20438.5
385,0,0.00332848,0.0359121,-0.0286579,-250.729,20701.9
385,1,0.00588432,0.0359502,-0.0193882,-1197.51,20995.3
385,2,0.00435844,0.0321355,-0.0150776,486.488,21222.9
385,3,-0.00418648,0.0322118,-0.0203037,172.142,21453.4
385,4,-0.000409927,0.0358358,-0.0204945,-74.8444,21773.7
386,0,-0.0168513,0.0400701,-0.0311375,-194.595,22067.1
386,1,-0.0251292,0.0372854,-0.0221729,-1107.7,22429.4
386,2,-0.0239466,0.0325552,-0.0175571,-190.853,22644.9
386,3,-0.0191401,0.0323263,-0.0191593,235.76,22935.3
386,4,-0.0163172,0.0342336,-0.0198078,0,23213.7
387,0,-0.0308512,0.0422826,-0.0233555,-37.4222,23549
387,1,-0.0202464,0.0400701,-0.0212955,-505.199,23863.4
387,2,-0.0114725,0.0334325,-0.0172138,-224.533,24108.9
387,3,-0.0102518,0.030953,-0.0139332,-7.48444,24363.3
387,4,0.00214592,0.037705,-0.0188541,609.982,24519
388,0,0.00218407,0.0356451,-0.0226307,130.978,24869.3
388,1,-0.0177287,0.039269,-0.0211048,-217.049,25144.7
388,2,0.00184074,0.0346532,-0.0197315,-404.16,25345.3
388,3,0.0219823,0.0321737,-0.0106144,-303.12,25512.9
388,4,0.0121023,0.0362554,-0.0161076,755.928,25593.8
389,0,0.00695244,0.0341573,-0.0200367,407.902,25866.2
389,1,0.00828758,0.0389257,-0.0217152,-280.666,26063.8
389,2,0.0254919,0.0345388,-0.0181293,-392.933,26198.5
389,3,0.0254156,0.0318685,-0.0152302,-71.1021,26366.2
389,4,0.00710503,0.0317159,-0.0137806,336.8,26450
390,0,0.00782982,0.035111,-0.0200748,456.551,26605.7
390,1,-0.0131129,0.0387731,-0.0209141,-104.782,26776.3
390,2,-0.0129984,0.0326696,-0.0180912,-471.519,26923
390,3,0.00218407,0.0311056,-0.017519,7.48444,27039.8
390,4,-0.0198649,0.0247732,-0.0146961,44.9066,27144.6
391,0,-0.0251673,0.0339285,-0.018816,490.231,27234.4
391,1,-0.00918373,0.0375143,-0.0227451,-48.6488,27375.1
391,2,-0.014715,0.0355306,-0.0191975,-385.448,27557.7
391,3,-0.0216196,0.0324407,-0.0189686,-130.978,27557.7
391,4,-0.0142573,0.0236669,-0.015192,-11.2267,27557.7
392,0,-0.0033091,0.0354925,-0.0191593,565.075,27566.7
392,1,-0.0149058,0.0359884,-0.0223637,-18.7111,27620.6
392,2,-0.026388,0.0348058,-0.0247288,-299.377,27680.4
392,3,-0.00922188,0.0335851,-0.0191975,-856.968,27614.6
392,4,0.0048925,0.0265279,-0.0166416,44.9066,27500.8
393,0,-0.00166878,0.0337759,-0.0179005,351.768,27405
393,1,0.00165001,0.0357977,-0.02244,-26.1955,27357.1
393,2,0.00317589,0.034577,-0.0295353,-377.964,27258.3
393,3,-0.011854,0.0346914,-0.021143,-1238.67,27189.5
393,4,-0.00597939,0.0324789,-0.0154972,-265.697,27012.8
394,0,-0.00254616,0.0326315,-0.0193501,172.142,26839.2
394,1,-0.0361155,0.0354543,-0.0212955,-187.111,26713.4
394,2,-0.0256251,0.0393453,-0.030489,-190.853,26575.7
394,3,-0.0101756,0.0371709,-0.0199986,-879.421,26491.9
394,4,0.000810776,0.0315252,-0.0163364,-265.697,26309.3
395,0,0.0123693,0.0323263,-0.0190067,172.142,26084.8
395,1,0.00874535,0.0356451,-0.0191212,74.8444,25881.2
395,2,0.0205328,0.0417867,-0.0257587,123.493,25764.4
395,3,0.0126363,0.0375524,-0.0230122,-479.004,25644.7
395,4,0.00710503,0.0340047,-0.0169849,-321.831,25393.2
396,0,0.0144292,0.0320211,-0.0168324,-52.3911,25207.6
396,1,0.00641838,0.0346151,-0.0163364,662.373,24869.3
396,2,-0.0123499,0.0382391,-0.0150013,142.204,24824.4
396,3,-0.00193581,0.0389639,-0.0215626,-306.862,24650.7
396,4,-0.000524368,0.0333181,-0.0187016,-460.293,24420.2
397,0,0.00206963,0.029389,-0.011797,-71.1021,24174.7
397,1,0.00775352,0.035378,-0.0149632,752.186,23884.3
397,2,0.00672356,0.0344625,-0.02244,366.737,23713.7
397,3,-0.000638809,0.0385442,-0.0228214,-104.782,23519.1
397,4,-0.000104751,0.0349966,-0.0185871,-546.364,23324.5
398,0,0.013323,0.0315252,-0.0109959,-52.3911,23040.1
398,1,0.00760094,0.0346151,-0.0147343,-71.1021,22827.5
398,2,8.59834e-05,0.0344625,-0.0193501,520.168,22600
398,3,-0.0025843,0.0391546,-0.0227451,-198.338,22396.4
398,4,0.014887,0.0363317,-0.0177097,-434.097,22180.9
399,0,0.0114919,0.0312963,-0.0156879,-82.3288,21950.4
399,1,0.00660912,0.0276342,-0.0152683,254.471,21660
399,2,0.017214,0.0352636,-0.0183964,501.457,21432.4
399,3,-0.0115107,0.0380102,-0.0186253,-63.6177,21252.8
399,4,-0.0220393,0.0335851,-0.0181293,-362.995,21118.1
400,0,-0.0164317,0.0331274,-0.0183201,-699.795,20848.6
400,1,0.00569359,0.0224081,-0.0145054,-48.6488,20588.2
400,2,-0.007696,0.0353399,-0.0187016,426.613,20360.7
400,3,-0.0211237,0.0367895,-0.02244,44.9066,20166.1
400,4,-0.00254616,0.0351492,-0.0229359,-310.604,19983.4
401,0,-0.00037178,0.0337377,-0.0153446,-1088.99,19815.8
401,1,-0.00109657,0.028092,-0.0141621,-41.1644,19606.2
401,2,-0.00361427,0.0336233,-0.0195789,224.533,19345.8
401,3,-0.0107096,0.0359884,-0.0222492,-37.4222,19214
401,4,-0.0123499,0.0382772,-0.0307178,-224.533,19103.3
402,0,0.0165655,0.0347295,-0.018549,-1291.07,18941.6
402,1,0.016184,0.0318304,-0.0156879,-160.915,18762
402,2,0.00378624,0.0326315,-0.0196171,134.72,18552.4
402,3,0.00222221,0.0346532,-0.0209141,-56.1333,18453.6
402,4,0.0155737,0.0415578,-0.0293827,-168.4,18324.9
403,0,0.0157644,0.0362554,-0.0197315,-714.764,18274
403,1,-0.0106715,0.0355688,-0.0162983,-235.76,18130.3
403,2,0.00340477,0.0308004,-0.0193882,239.502,17977.6
403,3,0.000925217,0.0346914,-0.0197315,67.3599,17842.9
403,4,-0.0213526,0.0397268,-0.0229359,134.72,17798
404,0,-0.0239085,0.0382772,-0.0209522,-404.16,17756.1
404,1,-0.00609383,0.0360265,-0.0137424,-340.542,17627.3
404,2,-0.00761971,0.0317159,-0.0135517,426.613,17519.6
404,3,0.00653282,0.0342718,-0.0174046,752.186,17319
404,4,0.0278188,0.0376287,-0.0205708,250.729,17381.9
405,0,0.0146581,0.0390401,-0.02244,-288.151,17331
405,1,0.0159551,0.0349966,-0.0184345,-348.026,17226.2
405,2,0.0154592,0.0307623,-0.011301,-44.9066,17133.4
405,3,0.0106527,0.0351492,-0.0143147,707.279,16974.7
405,4,0.000200424,0.0336614,-0.0229359,359.253,17007.6
406,0,-0.0158595,0.0430074,-0.0238895,-434.097,17016.6
406,1,0.00889793,0.0356069,-0.0185108,-392.933,16893.9
406,2,0.0102712,0.0324789,-0.0119114,104.782,16869.9
406,3,-0.00449165,0.0324407,-0.0154591,325.573,16777.1
406,4,0.00256554,0.0349203,-0.0199604,512.684,16765.1
407,0,-0.0089167,0.0392309,-0.0225163,-33.68,16771.1
407,1,0.00382439,0.0346532,-0.0186634,-497.715,16759.1
407,2,0.0179769,0.0324026,-0.0212574,187.111,16723.2
407,3,0.0139333,0.028092,-0.0138569,-400.417,16654.4
407,4,0.0101949,0.034081,-0.0193119,493.973,16657.4
408,0,0.0092794,0.0378194,-0.0234318,-11.2267,16684.3
408,1,0.0108816,0.0348821,-0.0188541,-381.706,16795.1
408,2,0.0179769,0.0332418,-0.0191593,-175.884,16732.2
408,3,0.0127508,0.0232473,-0.0143528,-59.8755,16714.2
408,4,0.0220968,0.0345007,-0.0177097,580.044,16741.2
409,0,0.0080587,0.0375906,-0.022974,-11.2267,16822
409,1,0.00378624,0.0292364,-0.0241566,-392.933,16926.8
409,2,0.0281622,0.0334707,-0.0201893,-819.546,16971.7
409,3,0.0474264,0.0274053,-0.0146961,-71.1021,16962.7
409,4,0.0219823,0.0335851,-0.0188923,422.871,16995.7
410,0,0.00588432,0.0354925,-0.0224781,-89.8132,17076.5
410,1,0.0131704,0.036408,-0.0272465,-198.338,17169.3
410,2,-0.00166878,0.0343862,-0.0200748,-1335.97,17229.2
410,3,0.00508324,0.0309911,-0.0115299,-138.462,17250.1
410,4,0.00088707,0.0330892,-0.0193501,232.018,17199.2
411,0,-0.00697121,0.0353017,-0.0214481,-52.3911,17235.2
411,1,-0.0136851,0.0390401,-0.031023,-78.5866,17268.1
411,2,-0.0121973,0.0361028,-0.0161076,-763.412,17334
411,3,0.00668541,0.0320211,-0.015955,-190.853,17322
411,4,-0.00578865,0.031487,-0.0215244,-11.2267,17274.1
412,0,-0.00964149,0.0355306,-0.02038,733.475,17244.1
412,1,-0.00166878,0.0414434,-0.0278187,97.2977,17325
412,2,-0.00296577,0.0406042,-0.0208378,-325.573,17396.8
412,3,0.00588432,0.0325552,-0.0173283,-280.666,17384.8
412,4,0.0284292,0.0343099,-0.0198841,74.8444,17402.8
413,0,0.0222112,0.034844,-0.0172901,722.248,17351.9
413,1,0.0117971,0.0409475,-0.0231647,362.995,17525.6
413,2,0.0166418,0.0387731,-0.0215244,-434.097,17618.4
413,3,0.0102331,0.0337377,-0.017786,-370.48,17669.3
413,4,0.00226036,0.0309148,-0.0106144,3.74222,17729.1
414,0,-0.0131892,0.0354162,-0.0167179,213.306,17756.1
414,1,-0.00487312,0.0367132,-0.0225163,452.808,17839.9
414,2,-0.0039576,0.0384679,-0.0220966,-56.1333,17977.6
414,3,-0.0113581,0.0346151,-0.0182056,-464.035,17974.6
414,4,-0.00594124,0.0311056,-0.0116444,505.199,18046.5
415,0,-0.00399574,0.0350729,-0.0145817,101.04,18013.5
415,1,-0.0133036,0.0340429,-0.0203419,527.653,18055.5
415,2,-0.0191782,0.0390783,-0.0210667,-232.018,18100.4
415,3,-0.00269875,0.0333562,-0.0199223,-449.066,18145.3
415,4,-0.0128077,0.0322118,-0.0123692,-18.7111,18103.4
416,0,-0.0139521,0.03019,-0.0154209,-26.1955,18025.5
416,1,-0.0083445,0.0346914,-0.018816,392.933,17989.6
416,2,-0.0142954,0.0387731,-0.022974,-7.48444,18019.5
416,3,-0.00559792,0.0343099,-0.0169849,-471.519,18070.4
416,4,-0.0109385,0.0314108,-0.0186253,-325.573,17971.6
417,0,0.00763908,0.0277486,-0.0135517,-11.2267,17893.8
417,1,-0.00521645,0.0339285,-0.0185108,430.355,17842.9
417,2,-0.00445351,0.0377432,-0.0232792,86.071,17860.9
417,3,0.0164129,0.0339666,-0.0200367,-441.582,17878.8
417,4,0.0127126,0.0325933,-0.0198078,-703.537,17899.8
418,0,0.00802055,0.0245061,-0.0142002,-101.04,17833.9
418,1,0.0264455,0.0336996,-0.0192356,445.324,17798
418,2,0.00977531,0.0367513,-0.022974,-239.502,17836.9
418,3,-0.0100993,0.0336233,-0.0235844,-228.275,17869.8
418,4,-0.0106333,0.0349584,-0.0188923,-1605.41,17896.8
419,0,-0.00464424,0.0275579,-0.0148487,-82.3288,17896.8
419,1,-0.0032328,0.0340047,-0.0192738,516.426,17890.8
419,2,-0.0237559,0.0353017,-0.0214863,-116.009,17935.7
419,3,-0.00887856,0.035111,-0.0279331,-190.853,17977.6
419,4,-0.00697121,0.0343481,-0.0199604,-972.977,18067.4
420,0,-0.0121592,0.0312582,-0.0151539,-220.791,18028.5
420,1,-0.0205897,0.0317541,-0.0195789,404.16,18049.5
420,2,-0.0281046,0.0356451,-0.0214863,97.2977,18052.5
420,3,-0.0453089,0.0376669,-0.0314808,101.04,18139.3
420,4,-0.0291727,0.036675,-0.0207233,-490.231,18187.2
421,0,-0.0200938,0.032784,-0.0160313,-542.622,18154.2
421,1,-0.0244425,0.0329366,-0.0198841,48.6488,18124.3
421,2,-0.0162028,0.0348058,-0.0212955,508.942,18046.5
421,3,-0.013151,0.0414053,-0.0309086,550.106,18133.3
421,4,-0.00468239,0.0372472,-0.0200748,-407.902,18169.2
422,0,-0.00731453,0.0363317,-0.0158024,-400.417,18091.4
422,1,0.000696335,0.0316015,-0.0199604,11.2267,18040.5
422,2,0.00439659,0.0355306,-0.0197697,894.39,17851.9
422,3,-0.0222681,0.0416723,-0.0267887,303.12,17944.7
422,4,-0.0225352,0.0380865,-0.0199223,-134.72,17938.7
423,0,-0.00803932,0.0333944,-0.0174046,116.009,17869.8
423,1,-0.00964149,0.0317541,-0.017786,41.1644,17821.9
423,2,-0.0168131,0.0344625,-0.0180912,643.661,17729.1
423,3,-0.00262245,0.0390783,-0.0213337,471.519,17735.1
423,4,-0.00216469,0.0379339,-0.0222492,-67.3599,17723.1
424,0,0.00386253,0.0350347,-0.0171757,-482.746,17714.2
424,1,0.0130178,0.0306478,-0.0148487,134.72,17681.2
424,2,0.0018026,0.0342336,-0.0171375,93.5555,17621.4
424,3,0.0036718,0.0345388,-0.0216007,370.48,17609.4
424,4,-0.017042,0.0399557,-0.0209141,108.524,17615.4
425,0,0.00275627,0.0346914,-0.0190067,-707.279,17669.3
425,1,-0.010023,0.0312963,-0.0106525,-7.48444,17561.5
425,2,-0.00906929,0.0329748,-0.0155735,-145.947,17531.5
425,3,0.00546471,0.0346532,-0.0203037,538.879,17468.7
425,4,-0.00803932,0.037705,-0.0224018,-11.2267,17498.6
426,0,-0.0195216,0.0351492,-0.0190067,-479.004,17510.6
426,1,-0.0149439,0.0311819,-0.0151157,-310.604,17381.9
426,2,-0.0145243,0.0299612,-0.0144291,-22.4533,17235.2
426,3,-0.032873,0.0379339,-0.0199604,392.933,17106.4
426,4,-0.0343607,0.0385061,-0.022707,-37.4222,17061.5
427,0,-0.0314616,0.0345007,-0.0177479,-340.542,16953.7
427,1,-0.0246714,0.0317922,-0.0185108,-1066.53,16878.9
427,2,-0.0374888,0.025498,-0.0167561,-303.12,16699.3
427,3,-0.0480173,0.0336614,-0.0231266,295.635,16537.6
427,4,-0.0405405,0.0380483,-0.0225163,-348.026,16432.8
428,0,-0.0429819,0.0343099,-0.0199223,-71.1021,16310.1
428,1,-0.0265025,0.0339666,-0.0192356,-1321,16220.3
428,2,0.00630394,0.0231329,-0.015192,-153.431,16016.7
428,3,0.00325218,0.0343862,-0.0174046,232.018,15762.2
428,4,-0.0039576,0.0362173,-0.0227833,-134.72,15693.4
429,0,0.00638023,0.0348058,-0.0267887,-183.369,15621.5
429,1,0.0189687,0.0347677,-0.019083,-1014.14,15438.9
429,2,0.0198843,0.0298467,-0.0158787,-198.338,15217.4
429,3,0.0117971,0.0338903,-0.0195026,145.947,15010.8
429,4,0.0188543,0.0344244,-0.0208759,52.3911,14840.1
430,0,0.0272466,0.0383916,-0.0314426,-22.4533,14681.5
430,1,0.0269415,0.0364462,-0.0193119,-460.293,14540.8
430,2,0.0338842,0.0310293,-0.0166035,-246.986,14334.2
430,3,0.0264455,0.0328985,-0.0254917,78.5866,14142.6
430,4,0.00596062,0.0347295,-0.0201511,228.275,13915.1
431,0,0.0157644,0.0423971,-0.0289631,235.76,13807.3
431,1,0.00908867,0.0384679,-0.0199986,-374.222,13684.5
431,2,-0.00212654,0.0338522,-0.0170612,-295.635,13475
431,3,0.00996605,0.0317922,-0.0189686,284.409,13301.3
431,4,0.0127508,0.035111,-0.0192356,767.155,13031.9
432,0,-0.0101756,0.0406805,-0.0227833,187.111,13025.9
432,1,-0.00872597,0.0377432,-0.0212955,-374.222,12951.1
432,2,-0.00868782,0.0338903,-0.0173664,-310.604,12780.4
432,3,0.000276718,0.0317159,-0.0146961,-56.1333,12666.7
432,4,-0.00758156,0.035111,-0.0179768,946.781,12445.1
433,0,-0.00838264,0.0362554,-0.0207615,370.48,12421.2
433,1,-0.00468239,0.0386968,-0.0213718,-172.142,12373.3
433,2,0.00214592,0.0351492,-0.0172901,-493.973,12253.5
433,3,0.0166418,0.0312582,-0.0106144,56.1333,12151.7
433,4,0.019045,0.0334707,-0.0143528,318.089,12052.9
434,0,0.00321404,0.0350347,-0.0248432,490.231,12008
434,1,-0.0118159,0.0385061,-0.0224018,-86.071,11963.1
434,2,0.0101568,0.0350347,-0.0199604,-389.191,11921.2
434,3,0.00412956,0.0320974,-0.013628,-18.7111,11843.4
434,4,-0.0229166,0.0331655,-0.0138187,269.44,11741.6
435,0,-0.0104044,0.0353017,-0.0194645,355.511,11669.7
435,1,-0.00842079,0.0380483,-0.0220585,0,11642.8
435,2,-0.00994667,0.035378,-0.0190449,-748.444,11663.7
435,3,-0.0130366,0.0320974,-0.0184727,-127.235,11529
435,4,0.0131322,0.0262228,-0.014658,-74.8444,11346.4
436,0,0.0286581,0.034577,-0.0199604,538.879,11268.6
436,1,0.00531212,0.0370947,-0.0224781,26.1955,11205.7
436,2,0.00645653,0.0340429,-0.0207996,-426.613,11148.8
436,3,0.0139333,0.0333181,-0.0191975,-595.013,11023.1
436,4,0.00535027,0.0238195,-0.0137806,-130.978,10807.5
437,0,0.00813499,0.0292745,-0.0188541,362.995,10696.8
437,1,0.00527397,0.0365606,-0.0247288,-67.3599,10496.2
437,2,-0.00487312,0.0341955,-0.025568,-190.853,10358.5
437,3,-0.000829544,0.0342336,-0.0186634,-1268.61,10259.7
437,4,0.0104238,0.0292364,-0.0142002,-56.1333,10038.1
438,0,0.0126745,0.0327459,-0.0194645,565.075,9867.48
438,1,0.00271812,0.0349203,-0.0204945,-130.978,9771.68
438,2,0.0106145,0.0362173,-0.0312901,-142.204,9651.93
438,3,0.0191213,0.036141,-0.021143,-1440.75,9595.05
438,4,0.000581894,0.0320593,-0.015955,-183.369,9448.35
439,0,-0.00773415,0.0329748,-0.0202656,142.204,9382.49
439,1,-0.00311836,0.0341955,-0.0219059,14.9689,9277.71
439,2,-0.000142898,0.0418249,-0.029192,11.2267,9262.74
439,3,0.000734482,0.0371709,-0.0205326,-538.879,9265.73
439,4,0.0192739,0.0321737,-0.0180531,-101.04,9151.97
440,0,0.023203,0.0324026,-0.0198078,239.502,9139.99
440,1,0.0157644,0.0325933,-0.0155735,523.911,9083.11
440,2,0.0237753,0.038735,-0.0248814,127.235,9154.96
440,3,0.0259496,0.0389639,-0.0208378,-250.729,9178.91
440,4,0.0216009,0.0342336,-0.0173664,-303.12,9131.01
441,0,0.0102331,0.0313345,-0.0164509,11.2267,9092.09
441,1,0.00573174,0.0357214,-0.0162601,639.919,8924.44
441,2,-0.00674232,0.0370947,-0.02244,325.573,9053.17
441,3,-0.0316523,0.0386968,-0.0196171,-142.204,9053.17
441,4,-0.00742897,0.0346914,-0.0176334,-1074.02,8948.39
442,0,0.0104238,0.0315633,-0.0103474,11.2267,8927.44
442,1,-0.00742897,0.0351873,-0.0155735,666.115,8810.68
442,2,-0.0156687,0.0338522,-0.0218678,392.933,8810.68
442,3,-0.019636,0.0385824,-0.021143,-250.729,8786.73
442,4,-0.0254725,0.0354543,-0.0171375,-538.879,8717.87
443,0,-0.0199412,0.0312963,-0.0142002,44.9066,8634.04
443,1,-0.0295924,0.0329366,-0.0139332,-7.48444,8514.29
443,2,-0.0294016,0.0343862,-0.0196934,479.004,8463.4
443,3,-0.0527476,0.039002,-0.0238514,-67.3599,8436.46
443,4,-0.0341319,0.0352255,-0.0185108,-516.426,8406.52
444,0,-0.00601753,0.0323644,-0.0177479,-123.493,8343.65
444,1,-0.0174998,0.0279775,-0.012064,-48.6488,8223.9
444,2,-0.00895485,0.0340047,-0.0193501,770.897,8190.97
444,3,0.00660912,0.0388876,-0.0194263,3.74222,8170.01
444,4,0.0131704,0.0342336,-0.0186634,-396.675,8244.85
445,0,0.00691429,0.0329366,-0.0184727,-684.826,8158.04
445,1,0.019808,0.0233617,-0.0144291,14.9689,8062.23
445,2,0.0105383,0.03328,-0.0185108,123.493,8002.36
445,3,0.0011541,0.0381246,-0.0253391,3.74222,8014.33
445,4,0.00264183,0.0333181,-0.0220203,-325.573,8008.35
446,0,0.0196935,0.0345007,-0.0187397,-1092.73,8017.33
446,1,0.0454809,0.0256124,-0.0144291,-153.431,7957.45
446,2,0.0305273,0.0344625,-0.0179386,340.542,7873.63
446,3,0.0428106,0.0359884,-0.0234699,-93.5555,7894.58
446,4,0.0378896,0.0360265,-0.0267887,-318.089,7849.68
447,0,0.0131704,0.0356832,-0.0182438,-1392.11,7840.7
447,1,0.0206853,0.0294271,-0.0178242,-112.267,7762.86
447,2,0.0156118,0.0334707,-0.0165272,254.471,7649.09
447,3,0.00126854,0.0354925,-0.0199986,-59.8755,7616.16
447,4,0.0180151,0.039269,-0.029459,0,7595.21
448,0,0.0360204,0.036408,-0.0203037,-639.919,7583.23
448,1,0.0248815,0.0331274,-0.0162983,112.267,7502.4
448,2,0.027094,0.0337377,-0.0195026,82.3288,7418.57
448,3,0.0237371,0.0348821,-0.02038,359.253,7358.7
448,4,0.0319387,0.0416723,-0.0277424,108.524,7406.6
449,0,0.0351049,0.038735,-0.0193882,-291.893,7460.49
449,1,0.0237371,0.0329748,-0.0165272,-333.057,7430.55
449,2,0.026827,0.0310674,-0.0198841,-18.7111,7424.56
449,3,0.016451,0.0359502,-0.0179768,845.741,7334.75
449,4,0.00710503,0.0390783,-0.0231647,359.253,7538.32
450,0,0.0125982,0.0353017,-0.021944,-86.071,7655.08
450,1,0.00306145,0.0349584,-0.0167561,-314.346,7726.93
450,2,-0.00456795,0.0312582,-0.00992775,-29.9377,7813.75
450,3,0.00168816,0.0350729,-0.0167561,666.115,7861.65
450,4,-0.0143717,0.0356069,-0.02141,467.777,8056.25
451,0,-0.0437067,0.0391164,-0.0251865,-149.689,8202.94
451,1,-0.0221918,0.035111,-0.0181293,-359.253,8331.67
451,2,-0.0197504,0.031487,-0.0126362,-366.737,8466.39
451,3,-0.027418,0.0337377,-0.0167942,104.782,8553.21
451,4,-0.0308894,0.0351873,-0.0216007,52.3911,8669.97
452,0,-0.0286387,0.0390783,-0.0216007,7.48444,8864.57
452,1,-0.00681862,0.0353399,-0.0187016,-613.724,9029.22
452,2,-0.00128731,0.0317159,-0.0167179,56.1333,9119.04
452,3,0.0106527,0.0292745,-0.0161076,3.74222,9235.79
452,4,0.0161077,0.0328603,-0.0209904,228.275,9280.7
453,0,0.00283257,0.0381246,-0.0244999,-385.448,9403.45
453,1,0.00878349,0.0350729,-0.0177097,-306.862,9651.93
453,2,0.0182439,0.0326315,-0.0201893,-471.519,9672.88
453,3,0.00157372,0.0251546,-0.0140858,-134.72,9675.88
453,4,-0.00254616,0.0342718,-0.0187778,370.48,9801.62
454,0,-0.00544533,0.0378576,-0.0231266,-41.1644,9993.22
454,1,-0.000905838,0.0342336,-0.0242329,-437.84,10136.9
454,2,0.00588432,0.0349966,-0.0204182,-958.008,10250.7
454,3,0.0123693,0.0235143,-0.0127506,86.071,10343.5
454,4,0.0108053,0.0334325,-0.0180531,381.706,10454.3
455,0,-0.00113472,0.0383154,-0.0226688,7.48444,10651.8
455,1,-0.014181,0.0336996,-0.0224781,-303.12,10828.5
455,2,-0.00845894,0.0339666,-0.0186634,-1321,11035.1
455,3,0.00336662,0.0255743,-0.0149632,-157.173,11157.8
455,4,-0.0143717,0.0352636,-0.0197697,235.76,11244.6
456,0,-0.00906929,0.0364462,-0.021944,-78.5866,11499.1
456,1,-0.00521645,0.0361791,-0.0293827,340.542,11678.7
456,2,-0.0172709,0.0356451,-0.0189686,-972.977,11906.2
456,3,-0.00483498,0.0310674,-0.0150394,-160.915,12023
456,4,-0.00628456,0.0329748,-0.0192738,306.862,12127.8
457,0,-0.0117777,0.0356832,-0.0216007,33.68,12262.5
457,1,-0.0197886,0.0402227,-0.0322437,7.48444,12424.2
457,2,0.00142113,0.0333181,-0.0168324,-430.355,12609.8
457,3,0.00088707,0.0324407,-0.0165272,-190.853,12669.7
457,4,-0.0195979,0.033547,-0.0201893,52.3911,12750.5
458,0,-0.0144862,0.0337759,-0.019846,643.661,12759.5
458,1,-0.0128077,0.0422826,-0.0282764,314.346,12936.1
458,2,-0.0223063,0.0367132,-0.0163364,-232.018,13094.8
458,3,-0.012617,0.0340047,-0.0162601,-389.191,13196.6
458,4,-0.000257339,0.0323263,-0.0177479,-18.7111,13241.5
459,0,-0.0228403,0.0342336,-0.0201511,407.902,13208.5
459,1,-0.0291727,0.0424352,-0.022707,348.026,13442
459,2,-0.0204371,0.0385061,-0.0208378,-531.395,13582.8
459,3,4.78365e-05,0.0335088,-0.0187778,-422.871,13657.6
459,4,-0.00403389,0.031487,-0.0150013,22.4533,13783.3
460,0,-0.00487312,0.0349584,-0.0193501,430.355,13804.3
460,1,0.00466362,0.0411764,-0.0217533,445.324,13992.9
460,2,-0.0187205,0.0386205,-0.0207615,-205.822,14076.7
460,3,-0.0241373,0.0371709,-0.020113,-490.231,14241.4
460,4,-0.005102,0.0316396,-0.0116062,112.267,14322.2
461,0,-0.00231728,0.0352255,-0.0159931,33.68,14397.1
461,1,-0.0169276,0.0343481,-0.0214481,490.231,14456.9
461,2,-0.00666603,0.0389257,-0.0226307,318.089,14588.7
461,3,0.00279442,0.0324789,-0.0194263,-523.911,14738.4
461,4,-0.019369,0.03122,-0.0103092,-172.142,14711.4
462,0,-0.0287531,0.0344625,-0.015192,-179.626,14705.4
462,1,-0.0254343,0.0345007,-0.0200748,535.137,14705.4
